Filename:	D:\Users\Thermal_Users\LeBlanc\Ag1 ink 8_9_16.tg1d

Temperature (°C)	Weight (mg)
86.391	112.2734
88.118	112.2493
89.796	112.2241
91.391	112.1977
92.869	112.1706
94.216	112.1428
95.429	112.1144
96.513	112.0858
97.484	112.0571
98.349	112.0285
99.121	112.0001
99.818	111.9722
100.444	111.9448
101.012	111.9179
101.533	111.8916
102.009	111.8660
102.454	111.8411
102.867	111.8169
103.254	111.7933
103.618	111.7703
103.954	111.7478
104.264	111.7257
104.558	111.7039
104.834	111.6821
105.099	111.6606
105.349	111.6393
105.583	111.6183
105.805	111.5975
106.012	111.5769
106.207	111.5562
106.388	111.5358
106.558	111.5153
106.717	111.4951
106.867	111.4749
107.011	111.4548
107.149	111.4348
107.281	111.4148
107.403	111.3947
107.518	111.3746
107.629	111.3544
107.735	111.3342
107.833	111.3141
107.929	111.2939
108.019	111.2738
108.100	111.2536
108.178	111.2336
108.250	111.2135
108.325	111.1935
108.391	111.1735
108.456	111.1535
108.518	111.1335
108.579	111.1135
108.635	111.0937
108.685	111.0739
108.733	111.0542
108.779	111.0346
108.823	111.0152
108.863	110.9961
108.903	110.9771
108.940	110.9580
108.974	110.9389
109.005	110.9198
109.036	110.9007
109.066	110.8817
109.095	110.8627
109.124	110.8438
109.151	110.8250
109.175	110.8061
109.199	110.7871
109.223	110.7681
109.247	110.7493
109.266	110.7306
109.285	110.7118
109.302	110.6930
109.320	110.6741
109.334	110.6554
109.342	110.6366
109.352	110.6179
109.360	110.5991
109.369	110.5804
109.377	110.5618
109.382	110.5432
109.388	110.5247
109.393	110.5061
109.398	110.4874
109.407	110.4689
109.421	110.4504
109.443	110.4320
109.461	110.4139
109.476	110.3958
109.491	110.3779
109.505	110.3600
109.516	110.3418
109.529	110.3236
109.540	110.3055
109.544	110.2873
109.553	110.2689
109.559	110.2502
109.563	110.2315
109.567	110.2128
109.569	110.1943
109.568	110.1761
109.565	110.1583
109.563	110.1407
109.575	110.1231
109.585	110.1054
109.591	110.0874
109.593	110.0695
109.594	110.0518
109.597	110.0340
109.597	110.0162
109.598	109.9984
109.600	109.9805
109.606	109.9623
109.611	109.9439
109.613	109.9257
109.599	109.9075
109.602	109.8896
109.616	109.8716
109.623	109.8538
109.624	109.8361
109.625	109.8184
109.615	109.8009
109.609	109.7837
109.613	109.7665
109.616	109.7495
109.618	109.7325
109.627	109.7156
109.632	109.6987
109.637	109.6817
109.643	109.6648
109.646	109.6480
109.648	109.6312
109.652	109.6142
109.657	109.5971
109.661	109.5799
109.664	109.5627
109.666	109.5457
109.667	109.5287
109.665	109.5116
109.668	109.4947
109.670	109.4779
109.673	109.4611
109.675	109.4443
109.677	109.4276
109.678	109.4110
109.678	109.3944
109.679	109.3780
109.679	109.3616
109.680	109.3452
109.681	109.3289
109.682	109.3126
109.683	109.2962
109.683	109.2801
109.684	109.2640
109.685	109.2479
109.687	109.2319
109.689	109.2160
109.690	109.2002
109.693	109.1843
109.694	109.1684
109.693	109.1525
109.694	109.1367
109.694	109.1208
109.697	109.1050
109.696	109.0892
109.698	109.0736
109.699	109.0580
109.696	109.0423
109.695	109.0263
109.697	109.0092
109.698	108.9912
109.699	108.9731
109.699	108.9558
109.700	108.9393
109.697	108.9234
109.696	108.9078
109.694	108.8923
109.693	108.8771
109.692	108.8618
109.692	108.8467
109.690	108.8316
109.690	108.8167
109.689	108.8018
109.687	108.7870
109.685	108.7722
109.684	108.7573
109.684	108.7425
109.684	108.7276
109.684	108.7129
109.683	108.6982
109.683	108.6837
109.684	108.6692
109.685	108.6548
109.687	108.6404
109.686	108.6262
109.688	108.6120
109.686	108.5977
109.685	108.5834
109.684	108.5689
109.683	108.5544
109.681	108.5402
109.679	108.5260
109.674	108.5119
109.667	108.4978
109.659	108.4838
109.655	108.4698
109.650	108.4558
109.643	108.4418
109.638	108.4280
109.636	108.4141
109.636	108.4003
109.636	108.3865
109.636	108.3728
109.637	108.3592
109.636	108.3456
109.635	108.3320
109.635	108.3184
109.632	108.3047
109.628	108.2911
109.624	108.2776
109.620	108.2640
109.613	108.2506
109.606	108.2371
109.599	108.2237
109.599	108.2103
109.601	108.1971
109.600	108.1838
109.598	108.1706
109.599	108.1574
109.601	108.1443
109.602	108.1312
109.603	108.1183
109.597	108.1055
109.593	108.0928
109.590	108.0798
109.590	108.0668
109.591	108.0538
109.595	108.0408
109.596	108.0280
109.596	108.0151
109.599	108.0022
109.599	107.9895
109.601	107.9769
109.602	107.9642
109.602	107.9516
109.603	107.9390
109.610	107.9263
109.613	107.9136
109.615	107.9013
109.617	107.8888
109.617	107.8763
109.617	107.8638
109.617	107.8514
109.617	107.8391
109.615	107.8268
109.616	107.8146
109.616	107.8024
109.613	107.7901
109.612	107.7780
109.608	107.7658
109.605	107.7535
109.603	107.7414
109.600	107.7294
109.596	107.7174
109.588	107.7054
109.581	107.6935
109.578	107.6816
109.576	107.6692
109.574	107.6568
109.572	107.6444
109.570	107.6322
109.571	107.6201
109.572	107.6083
109.573	107.5971
109.574	107.5865
109.574	107.5766
109.573	107.5674
109.571	107.5586
109.572	107.5493
109.571	107.5393
109.573	107.5287
109.574	107.5177
109.572	107.5064
109.574	107.4951
109.575	107.4838
109.576	107.4725
109.577	107.4611
109.576	107.4498
109.576	107.4386
109.575	107.4273
109.574	107.4161
109.573	107.4047
109.572	107.3934
109.569	107.3820
109.564	107.3709
109.560	107.3598
109.553	107.3488
109.547	107.3376
109.540	107.3265
109.533	107.3153
109.527	107.3043
109.519	107.2932
109.515	107.2823
109.514	107.2715
109.513	107.2606
109.521	107.2499
109.523	107.2392
109.527	107.2283
109.529	107.2176
109.529	107.2069
109.527	107.1963
109.524	107.1855
109.522	107.1748
109.521	107.1642
109.519	107.1536
109.521	107.1431
109.522	107.1325
109.517	107.1219
109.513	107.1114
109.519	107.1009
109.521	107.0905
109.521	107.0800
109.521	107.0696
109.522	107.0593
109.522	107.0490
109.522	107.0388
109.517	107.0286
109.512	107.0185
109.510	107.0083
109.511	106.9983
109.511	106.9886
109.513	106.9785
109.517	106.9683
109.522	106.9581
109.525	106.9481
109.528	106.9379
109.530	106.9279
109.533	106.9180
109.533	106.9082
109.534	106.8982
109.534	106.8884
109.533	106.8786
109.533	106.8688
109.534	106.8590
109.536	106.8493
109.539	106.8395
109.537	106.8299
109.533	106.8202
109.528	106.8106
109.524	106.8010
109.518	106.7913
109.513	106.7818
109.510	106.7723
109.505	106.7628
109.503	106.7535
109.502	106.7440
109.498	106.7345
109.496	106.7252
109.493	106.7158
109.489	106.7066
109.485	106.6974
109.485	106.6882
109.487	106.6789
109.486	106.6696
109.487	106.6603
109.489	106.6511
109.488	106.6420
109.486	106.6329
109.485	106.6238
109.484	106.6149
109.483	106.6062
109.481	106.5972
109.482	106.5881
109.484	106.5790
109.486	106.5699
109.488	106.5611
109.491	106.5522
109.491	106.5432
109.491	106.5341
109.491	106.5252
109.495	106.5164
109.498	106.5078
109.497	106.4991
109.498	106.4904
109.498	106.4818
109.499	106.4731
109.497	106.4645
109.495	106.4559
109.489	106.4474
109.484	106.4388
109.476	106.4303
109.465	106.4219
109.457	106.4135
109.453	106.4051
109.447	106.3967
109.442	106.3884
109.436	106.3802
109.429	106.3719
109.425	106.3635
109.421	106.3551
109.412	106.3467
109.403	106.3387
109.396	106.3307
109.390	106.3226
109.383	106.3144
109.376	106.3063
109.368	106.2981
109.364	106.2901
109.359	106.2822
109.351	106.2744
109.354	106.2665
109.362	106.2586
109.368	106.2507
109.377	106.2429
109.385	106.2351
109.393	106.2272
109.400	106.2195
109.409	106.2118
109.414	106.2041
109.421	106.1965
109.426	106.1889
109.431	106.1812
109.435	106.1735
109.441	106.1659
109.445	106.1584
109.446	106.1509
109.447	106.1433
109.448	106.1357
109.447	106.1282
109.447	106.1208
109.448	106.1134
109.448	106.1061
109.448	106.0988
109.448	106.0916
109.448	106.0844
109.448	106.0771
109.449	106.0696
109.449	106.0622
109.449	106.0549
109.448	106.0478
109.448	106.0406
109.447	106.0335
109.446	106.0264
109.446	106.0193
109.447	106.0123
109.446	106.0053
109.443	105.9984
109.444	105.9914
109.442	105.9845
109.439	105.9777
109.435	105.9708
109.432	105.9639
109.430	105.9570
109.430	105.9503
109.424	105.9434
109.416	105.9367
109.413	105.9297
109.415	105.9230
109.416	105.9163
109.410	105.9097
109.407	105.9033
109.401	105.8967
109.391	105.8901
109.380	105.8836
109.368	105.8771
109.356	105.8705
109.345	105.8640
109.335	105.8576
109.327	105.8511
109.323	105.8447
109.313	105.8384
109.303	105.8321
109.297	105.8258
109.293	105.8196
109.285	105.8134
109.281	105.8072
109.276	105.8011
109.269	105.7950
109.260	105.7889
109.255	105.7827
109.257	105.7768
109.258	105.7707
109.255	105.7646
109.259	105.7585
109.261	105.7526
109.268	105.7467
109.276	105.7408
109.278	105.7349
109.279	105.7289
109.281	105.7230
109.285	105.7172
109.288	105.7114
109.289	105.7058
109.288	105.7000
109.285	105.6942
109.283	105.6886
109.281	105.6829
109.285	105.6772
109.293	105.6716
109.300	105.6662
109.302	105.6607
109.298	105.6552
109.295	105.6498
109.298	105.6444
109.304	105.6391
109.298	105.6336
109.302	105.6283
109.304	105.6229
109.299	105.6177
109.295	105.6125
109.296	105.6073
109.301	105.6022
109.304	105.5969
109.305	105.5917
109.307	105.5866
109.307	105.5815
109.308	105.5764
109.308	105.5712
109.309	105.5662
109.310	105.5612
109.311	105.5562
109.313	105.5512
109.313	105.5463
109.312	105.5414
109.312	105.5366
109.313	105.5318
109.314	105.5269
109.314	105.5221
109.317	105.5175
109.318	105.5127
109.321	105.5079
109.324	105.5032
109.327	105.4986
109.329	105.4941
109.331	105.4896
109.334	105.4850
109.335	105.4806
109.334	105.4761
109.336	105.4716
109.337	105.4670
109.333	105.4625
109.326	105.4582
109.318	105.4537
109.311	105.4494
109.305	105.4452
109.303	105.4409
109.297	105.4367
109.293	105.4325
109.292	105.4283
109.297	105.4241
109.300	105.4199
109.303	105.4156
109.301	105.4115
109.298	105.4075
109.293	105.4035
109.288	105.3996
109.283	105.3956
109.279	105.3916
109.271	105.3877
109.265	105.3839
109.258	105.3801
109.254	105.3763
109.248	105.3725
109.241	105.3687
109.235	105.3649
109.228	105.3611
109.224	105.3575
109.230	105.3539
109.231	105.3503
109.231	105.3466
109.229	105.3429
109.229	105.3393
109.230	105.3358
109.231	105.3323
109.230	105.3288
109.229	105.3253
109.229	105.3218
109.236	105.3183
109.245	105.3148
109.251	105.3114
109.256	105.3081
109.262	105.3046
109.263	105.3011
109.267	105.2977
109.263	105.2945
109.265	105.2913
109.262	105.2883
109.260	105.2852
109.259	105.2821
109.257	105.2790
109.252	105.2759
109.246	105.2727
109.243	105.2694
109.241	105.2664
109.245	105.2633
109.247	105.2604
109.247	105.2576
109.248	105.2545
109.250	105.2515
109.252	105.2486
109.252	105.2459
109.256	105.2431
109.271	105.2403
109.298	105.2375
109.339	105.2346
109.387	105.2319
109.452	105.2293
109.536	105.2265
109.619	105.2238
109.719	105.2211
109.808	105.2185
109.913	105.2158
110.032	105.2134
110.146	105.2110
110.273	105.2085
110.407	105.2059
110.543	105.2033
110.682	105.2006
110.821	105.1979
110.957	105.1952
111.092	105.1927
111.242	105.1901
111.396	105.1876
111.552	105.1851
111.706	105.1824
111.858	105.1799
112.008	105.1774
112.164	105.1749
112.320	105.1724
112.477	105.1698
112.637	105.1673
112.801	105.1649
112.968	105.1623
113.132	105.1597
113.296	105.1571
113.461	105.1546
113.623	105.1520
113.786	105.1495
113.946	105.1471
114.111	105.1445
114.276	105.1421
114.445	105.1398
114.615	105.1376
114.784	105.1353
114.946	105.1329
115.109	105.1304
115.277	105.1279
115.446	105.1256
115.613	105.1233
115.779	105.1208
115.946	105.1184
116.115	105.1160
116.282	105.1136
116.449	105.1113
116.620	105.1090
116.799	105.1067
116.970	105.1044
117.134	105.1021
117.299	105.0997
117.466	105.0973
117.634	105.0949
117.806	105.0927
117.972	105.0902
118.137	105.0879
118.307	105.0855
118.478	105.0833
118.648	105.0810
118.818	105.0785
118.988	105.0762
119.160	105.0739
119.331	105.0715
119.508	105.0692
119.687	105.0669
119.870	105.0646
120.050	105.0623
120.230	105.0600
120.410	105.0577
120.590	105.0554
120.769	105.0531
120.947	105.0508
121.123	105.0485
121.299	105.0461
121.474	105.0437
121.648	105.0412
121.821	105.0387
121.993	105.0364
122.163	105.0342
122.333	105.0320
122.504	105.0297
122.674	105.0274
122.843	105.0250
123.014	105.0227
123.185	105.0205
123.358	105.0182
123.533	105.0159
123.705	105.0136
123.879	105.0112
124.052	105.0091
124.224	105.0069
124.398	105.0046
124.575	105.0023
124.753	105.0000
124.927	104.9978
125.101	104.9955
125.272	104.9933
125.447	104.9911
125.622	104.9888
125.793	104.9865
125.964	104.9841
126.132	104.9819
126.303	104.9796
126.476	104.9771
126.645	104.9748
126.811	104.9725
126.976	104.9703
127.144	104.9681
127.316	104.9659
127.492	104.9636
127.671	104.9615
127.849	104.9593
128.022	104.9572
128.203	104.9550
128.382	104.9528
128.558	104.9508
128.733	104.9486
128.909	104.9464
129.077	104.9441
129.245	104.9418
129.416	104.9396
129.588	104.9373
129.766	104.9351
129.943	104.9329
130.120	104.9307
130.297	104.9285
130.472	104.9262
130.638	104.9240
130.810	104.9218
130.991	104.9195
131.170	104.9174
131.345	104.9153
131.514	104.9131
131.680	104.9109
131.851	104.9086
132.022	104.9063
132.189	104.9041
132.360	104.9020
132.535	104.9000
132.711	104.8979
132.889	104.8959
133.067	104.8939
133.241	104.8918
133.408	104.8897
133.580	104.8875
133.755	104.8855
133.926	104.8835
134.105	104.8814
134.281	104.8793
134.453	104.8772
134.622	104.8752
134.800	104.8731
134.977	104.8710
135.145	104.8690
135.308	104.8669
135.483	104.8650
135.654	104.8630
135.826	104.8612
136.003	104.8592
136.181	104.8572
136.359	104.8552
136.540	104.8533
136.720	104.8514
136.901	104.8495
137.082	104.8476
137.259	104.8455
137.438	104.8435
137.615	104.8415
137.791	104.8397
137.970	104.8380
138.143	104.8362
138.313	104.8344
138.483	104.8326
138.655	104.8308
138.825	104.8290
138.994	104.8271
139.168	104.8253
139.338	104.8236
139.506	104.8218
139.682	104.8201
139.858	104.8185
140.033	104.8168
140.207	104.8151
140.385	104.8134
140.561	104.8117
140.739	104.8099
140.916	104.8082
141.093	104.8065
141.271	104.8047
141.445	104.8032
141.623	104.8017
141.798	104.7999
141.973	104.7980
142.145	104.7961
142.321	104.7942
142.496	104.7926
142.671	104.7911
142.845	104.7894
143.017	104.7878
143.191	104.7862
143.367	104.7846
143.542	104.7829
143.716	104.7812
143.891	104.7795
144.069	104.7778
144.248	104.7762
144.424	104.7746
144.603	104.7730
144.778	104.7714
144.953	104.7698
145.130	104.7683
145.307	104.7666
145.481	104.7649
145.652	104.7631
145.821	104.7615
145.991	104.7600
146.159	104.7584
146.330	104.7569
146.506	104.7552
146.681	104.7537
146.848	104.7522
147.016	104.7507
147.185	104.7491
147.348	104.7475
147.511	104.7458
147.671	104.7442
147.837	104.7427
148.000	104.7411
148.164	104.7396
148.331	104.7380
148.500	104.7366
148.669	104.7351
148.842	104.7336
149.026	104.7320
149.208	104.7305
149.382	104.7291
149.560	104.7276
149.742	104.7261
149.925	104.7246
150.107	104.7231
150.287	104.7215
150.466	104.7199
150.646	104.7184
150.825	104.7170
151.004	104.7155
151.183	104.7140
151.358	104.7124
151.536	104.7109
151.714	104.7095
151.890	104.7081
152.063	104.7067
152.239	104.7052
152.419	104.7036
152.597	104.7021
152.776	104.7006
152.952	104.6991
153.129	104.6977
153.304	104.6963
153.477	104.6950
153.654	104.6936
153.831	104.6921
154.008	104.6907
154.182	104.6892
154.358	104.6879
154.536	104.6865
154.713	104.6850
154.888	104.6837
155.064	104.6823
155.242	104.6808
155.420	104.6793
155.599	104.6779
155.777	104.6764
155.955	104.6750
156.133	104.6736
156.308	104.6721
156.482	104.6707
156.654	104.6692
156.829	104.6677
157.000	104.6664
157.173	104.6650
157.345	104.6637
157.521	104.6623
157.693	104.6609
157.864	104.6595
158.040	104.6582
158.216	104.6571
158.396	104.6558
158.573	104.6543
158.752	104.6528
158.930	104.6513
159.109	104.6501
159.288	104.6488
159.466	104.6473
159.643	104.6458
159.821	104.6443
159.993	104.6428
160.166	104.6412
160.340	104.6398
160.511	104.6384
160.681	104.6373
160.850	104.6361
161.022	104.6347
161.194	104.6332
161.364	104.6318
161.536	104.6302
161.704	104.6286
161.871	104.6272
162.041	104.6259
162.209	104.6246
162.377	104.6234
162.546	104.6222
162.714	104.6211
162.886	104.6199
163.060	104.6183
163.235	104.6168
163.417	104.6153
163.597	104.6137
163.777	104.6119
163.955	104.6104
164.133	104.6091
164.310	104.6077
164.486	104.6063
164.660	104.6050
164.835	104.6037
165.006	104.6024
165.179	104.6010
165.353	104.5995
165.524	104.5980
165.699	104.5965
165.875	104.5950
166.051	104.5934
166.225	104.5919
166.399	104.5905
166.571	104.5890
166.748	104.5876
166.926	104.5861
167.102	104.5847
167.277	104.5834
167.449	104.5820
167.619	104.5805
167.789	104.5791
167.956	104.5778
168.124	104.5764
168.290	104.5749
168.456	104.5733
168.620	104.5717
168.785	104.5703
168.945	104.5688
169.104	104.5675
169.262	104.5661
169.421	104.5647
169.582	104.5631
169.742	104.5615
169.900	104.5599
170.059	104.5585
170.221	104.5571
170.380	104.5557
170.542	104.5541
170.702	104.5526
170.864	104.5511
171.030	104.5496
171.192	104.5481
171.359	104.5466
171.524	104.5451
171.686	104.5436
171.853	104.5421
172.014	104.5407
172.176	104.5391
172.337	104.5377
172.497	104.5363
172.651	104.5349
172.801	104.5334
172.949	104.5318
173.095	104.5302
173.240	104.5286
173.392	104.5271
173.542	104.5255
173.695	104.5239
173.850	104.5223
174.009	104.5209
174.165	104.5194
174.317	104.5179
174.465	104.5165
174.612	104.5150
174.759	104.5134
174.905	104.5119
175.054	104.5105
175.209	104.5089
175.364	104.5074
175.522	104.5058
175.679	104.5044
175.836	104.5029
175.992	104.5014
176.147	104.4999
176.301	104.4983
176.451	104.4968
176.600	104.4952
176.759	104.4936
176.916	104.4919
177.075	104.4902
177.234	104.4885
177.395	104.4870
177.557	104.4856
177.719	104.4841
177.882	104.4824
178.044	104.4807
178.205	104.4790
178.361	104.4774
178.516	104.4759
178.669	104.4744
178.823	104.4728
178.978	104.4712
179.132	104.4695
179.284	104.4679
179.440	104.4663
179.595	104.4647
179.749	104.4633
179.907	104.4618
180.066	104.4604
180.225	104.4588
180.383	104.4573
180.541	104.4557
180.701	104.4539
180.858	104.4523
181.017	104.4507
181.173	104.4490
181.330	104.4474
181.484	104.4458
181.638	104.4441
181.791	104.4425
181.945	104.4408
182.099	104.4393
182.251	104.4377
182.403	104.4361
182.555	104.4344
182.706	104.4328
182.858	104.4312
183.008	104.4295
183.156	104.4278
183.306	104.4263
183.457	104.4246
183.610	104.4229
183.762	104.4213
183.916	104.4198
184.071	104.4181
184.226	104.4164
184.383	104.4146
184.542	104.4129
184.701	104.4111
184.861	104.4095
185.020	104.4078
185.183	104.4062
185.345	104.4045
185.505	104.4029
185.666	104.4011
185.820	104.3994
185.972	104.3977
186.126	104.3958
186.279	104.3940
186.433	104.3921
186.586	104.3904
186.736	104.3887
186.887	104.3869
187.042	104.3853
187.196	104.3836
187.352	104.3818
187.513	104.3800
187.676	104.3783
187.835	104.3766
187.993	104.3748
188.149	104.3731
188.306	104.3712
188.466	104.3695
188.625	104.3679
188.786	104.3661
188.945	104.3644
189.106	104.3627
189.264	104.3609
189.420	104.3590
189.577	104.3572
189.735	104.3553
189.896	104.3534
190.058	104.3517
190.223	104.3498
190.386	104.3480
190.549	104.3461
190.709	104.3443
190.872	104.3425
191.034	104.3408
191.195	104.3389
191.356	104.3370
191.512	104.3350
191.668	104.3332
191.826	104.3313
191.984	104.3294
192.142	104.3276
192.302	104.3257
192.463	104.3238
192.621	104.3220
192.781	104.3201
192.939	104.3182
193.096	104.3163
193.251	104.3144
193.408	104.3124
193.567	104.3105
193.727	104.3087
193.885	104.3067
194.045	104.3048
194.201	104.3029
194.361	104.3011
194.521	104.2992
194.681	104.2974
194.844	104.2954
195.007	104.2934
195.169	104.2914
195.333	104.2895
195.498	104.2875
195.661	104.2856
195.824	104.2837
195.987	104.2818
196.148	104.2798
196.310	104.2778
196.469	104.2757
196.630	104.2736
196.790	104.2717
196.951	104.2698
197.110	104.2678
197.272	104.2658
197.433	104.2638
197.594	104.2617
197.755	104.2596
197.912	104.2577
198.071	104.2557
198.231	104.2537
198.390	104.2517
198.546	104.2496
198.701	104.2476
198.857	104.2455
199.009	104.2436
199.163	104.2417
199.316	104.2398
199.467	104.2377
199.622	104.2355
199.775	104.2335
199.931	104.2313
200.086	104.2292
200.242	104.2271
200.398	104.2250
200.552	104.2228
200.708	104.2206
200.863	104.2185
201.023	104.2165
201.186	104.2145
201.350	104.2125
201.516	104.2104
201.677	104.2082
201.840	104.2060
202.006	104.2039
202.173	104.2018
202.339	104.1997
202.505	104.1976
202.662	104.1957
202.823	104.1936
202.982	104.1914
203.143	104.1892
203.302	104.1870
203.462	104.1849
203.617	104.1827
203.774	104.1804
203.929	104.1782
204.081	104.1760
204.234	104.1739
204.389	104.1717
204.549	104.1695
204.711	104.1673
204.874	104.1652
205.041	104.1631
205.207	104.1610
205.373	104.1588
205.538	104.1565
205.703	104.1544
205.867	104.1522
206.026	104.1500
206.187	104.1478
206.346	104.1455
206.506	104.1432
206.664	104.1409
206.823	104.1388
206.980	104.1365
207.137	104.1342
207.296	104.1320
207.456	104.1297
207.615	104.1273
207.778	104.1249
207.941	104.1227
208.105	104.1205
208.268	104.1183
208.432	104.1159
208.594	104.1137
208.756	104.1113
208.919	104.1089
209.082	104.1066
209.243	104.1044
209.404	104.1022
209.565	104.1000
209.725	104.0977
209.885	104.0954
210.044	104.0930
210.205	104.0907
210.367	104.0884
210.530	104.0860
210.693	104.0838
210.855	104.0815
211.018	104.0792
211.178	104.0769
211.336	104.0745
211.495	104.0722
211.651	104.0698
211.807	104.0674
211.960	104.0651
212.112	104.0629
212.261	104.0606
212.409	104.0583
212.560	104.0560
212.710	104.0536
212.861	104.0512
213.010	104.0488
213.159	104.0463
213.313	104.0438
213.474	104.0415
213.638	104.0391
213.805	104.0368
213.974	104.0346
214.145	104.0324
214.318	104.0300
214.489	104.0277
214.659	104.0254
214.825	104.0232
214.989	104.0209
215.154	104.0186
215.315	104.0161
215.477	104.0137
215.640	104.0114
215.802	104.0090
215.967	104.0067
216.132	104.0044
216.295	104.0020
216.458	103.9997
216.620	103.9975
216.778	103.9951
216.936	103.9927
217.096	103.9903
217.253	103.9879
217.412	103.9855
217.569	103.9831
217.727	103.9808
217.883	103.9785
218.039	103.9762
218.197	103.9738
218.355	103.9714
218.513	103.9691
218.670	103.9668
218.826	103.9644
218.978	103.9620
219.130	103.9596
219.280	103.9572
219.430	103.9549
219.580	103.9526
219.735	103.9504
219.888	103.9482
220.039	103.9459
220.187	103.9438
220.336	103.9414
220.487	103.9390
220.641	103.9366
220.794	103.9343
220.951	103.9319
221.107	103.9296
221.264	103.9273
221.424	103.9251
221.583	103.9228
221.746	103.9205
221.906	103.9181
222.066	103.9158
222.224	103.9135
222.381	103.9113
222.540	103.9090
222.697	103.9067
222.856	103.9043
223.015	103.9021
223.173	103.8999
223.334	103.8978
223.491	103.8957
223.649	103.8935
223.805	103.8913
223.956	103.8892
224.108	103.8870
224.265	103.8848
224.422	103.8826
224.582	103.8804
224.742	103.8781
224.903	103.8758
225.061	103.8736
225.218	103.8714
225.372	103.8692
225.533	103.8669
225.687	103.8646
225.840	103.8624
225.995	103.8602
226.149	103.8580
226.307	103.8560
226.462	103.8539
226.624	103.8519
226.786	103.8498
226.946	103.8477
227.104	103.8456
227.265	103.8435
227.423	103.8413
227.580	103.8392
227.733	103.8371
227.884	103.8352
228.040	103.8332
228.194	103.8311
228.351	103.8289
228.512	103.8268
228.675	103.8247
228.836	103.8228
228.995	103.8208
229.151	103.8188
229.306	103.8168
229.457	103.8147
229.606	103.8127
229.755	103.8106
229.906	103.8085
230.058	103.8063
230.210	103.8042
230.370	103.8023
230.533	103.8003
230.697	103.7984
230.854	103.7964
231.016	103.7945
231.179	103.7925
231.339	103.7906
231.496	103.7886
231.656	103.7866
231.817	103.7847
231.975	103.7827
232.134	103.7808
232.292	103.7789
232.457	103.7771
232.624	103.7752
232.793	103.7733
232.963	103.7714
233.129	103.7694
233.293	103.7675
233.457	103.7657
233.618	103.7638
233.780	103.7619
233.938	103.7600
234.099	103.7583
234.257	103.7564
234.416	103.7544
234.576	103.7524
234.731	103.7504
234.888	103.7484
235.044	103.7465
235.199	103.7447
235.356	103.7429
235.510	103.7411
235.663	103.7393
235.818	103.7375
235.972	103.7358
236.128	103.7341
236.284	103.7323
236.442	103.7306
236.599	103.7288
236.755	103.7271
236.912	103.7253
237.068	103.7236
237.223	103.7219
237.378	103.7203
237.535	103.7185
237.692	103.7166
237.851	103.7148
238.008	103.7130
238.164	103.7113
238.318	103.7095
238.469	103.7078
238.623	103.7061
238.776	103.7043
238.927	103.7026
239.081	103.7009
239.239	103.6990
239.399	103.6972
239.558	103.6955
239.716	103.6936
239.873	103.6917
240.030	103.6899
240.185	103.6881
240.338	103.6863
240.488	103.6846
240.640	103.6828
240.791	103.6811
240.940	103.6795
241.090	103.6777
241.240	103.6759
241.390	103.6742
241.539	103.6725
241.687	103.6709
241.835	103.6694
241.981	103.6678
242.127	103.6660
242.275	103.6643
242.420	103.6626
242.568	103.6609
242.715	103.6593
242.874	103.6575
243.042	103.6558
243.215	103.6540
243.391	103.6523
243.565	103.6506
243.737	103.6488
243.909	103.6470
244.077	103.6452
244.244	103.6434
244.412	103.6417
244.577	103.6399
244.742	103.6381
244.907	103.6365
245.069	103.6348
245.230	103.6331
245.386	103.6314
245.544	103.6297
245.701	103.6280
245.859	103.6263
246.019	103.6245
246.174	103.6229
246.330	103.6211
246.486	103.6193
246.643	103.6175
246.797	103.6158
246.951	103.6141
247.105	103.6123
247.259	103.6106
247.412	103.6087
247.566	103.6070
247.718	103.6052
247.872	103.6035
248.024	103.6018
248.179	103.5999
248.333	103.5981
248.489	103.5963
248.647	103.5945
248.801	103.5929
248.955	103.5911
249.106	103.5894
249.260	103.5877
249.414	103.5860
249.568	103.5842
249.726	103.5823
249.882	103.5806
250.037	103.5789
250.193	103.5771
250.350	103.5754
250.507	103.5736
250.662	103.5718
250.816	103.5701
250.971	103.5684
251.125	103.5667
251.276	103.5649
251.425	103.5631
251.572	103.5613
251.722	103.5595
251.869	103.5575
252.015	103.5557
252.159	103.5539
252.303	103.5521
252.447	103.5503
252.594	103.5486
252.744	103.5468
252.892	103.5451
253.040	103.5434
253.190	103.5416
253.339	103.5398
253.490	103.5380
253.645	103.5362
253.797	103.5344
253.953	103.5326
254.110	103.5307
254.267	103.5289
254.421	103.5271
254.570	103.5253
254.719	103.5236
254.867	103.5217
255.015	103.5199
255.163	103.5180
255.308	103.5161
255.452	103.5142
255.600	103.5125
255.753	103.5108
255.905	103.5092
256.063	103.5074
256.219	103.5056
256.374	103.5038
256.525	103.5018
256.674	103.4999
256.823	103.4980
256.975	103.4962
257.128	103.4943
257.283	103.4925
257.437	103.4905
257.588	103.4886
257.738	103.4868
257.885	103.4849
258.028	103.4831
258.171	103.4813
258.314	103.4795
258.457	103.4777
258.601	103.4758
258.747	103.4740
258.895	103.4722
259.044	103.4703
259.196	103.4684
259.351	103.4665
259.506	103.4647
259.665	103.4629
259.822	103.4612
259.981	103.4594
260.139	103.4575
260.298	103.4556
260.456	103.4537
260.614	103.4518
260.769	103.4498
260.923	103.4480
261.076	103.4461
261.233	103.4443
261.388	103.4425
261.540	103.4405
261.692	103.4384
261.840	103.4365
261.985	103.4346
262.130	103.4328
262.271	103.4308
262.413	103.4289
262.546	103.4269
262.679	103.4248
262.816	103.4228
262.951	103.4209
263.087	103.4191
263.228	103.4171
263.372	103.4151
263.520	103.4132
263.666	103.4113
263.809	103.4094
263.948	103.4074
264.091	103.4055
264.233	103.4036
264.376	103.4017
264.525	103.3999
264.674	103.3979
264.824	103.3960
264.976	103.3942
265.125	103.3924
265.272	103.3904
265.422	103.3883
265.572	103.3863
265.727	103.3843
265.884	103.3823
266.044	103.3803
266.204	103.3784
266.358	103.3764
266.506	103.3743
266.649	103.3722
266.792	103.3703
266.936	103.3683
267.075	103.3663
267.217	103.3644
267.361	103.3624
267.501	103.3603
267.642	103.3583
267.784	103.3562
267.928	103.3543
268.071	103.3524
268.217	103.3504
268.362	103.3485
268.514	103.3465
268.668	103.3445
268.821	103.3425
268.979	103.3405
269.134	103.3386
269.286	103.3367
269.438	103.3347
269.586	103.3327
269.732	103.3306
269.883	103.3286
270.036	103.3266
270.185	103.3246
270.341	103.3227
270.493	103.3207
270.642	103.3186
270.790	103.3165
270.931	103.3144
271.073	103.3123
271.216	103.3103
271.355	103.3083
271.497	103.3063
271.644	103.3044
271.799	103.3025
271.957	103.3008
272.109	103.2991
272.266	103.2972
272.420	103.2951
272.577	103.2929
272.732	103.2908
272.888	103.2885
273.039	103.2864
273.187	103.2843
273.332	103.2823
273.474	103.2805
273.616	103.2785
273.758	103.2762
273.898	103.2741
274.040	103.2720
274.187	103.2699
274.331	103.2680
274.484	103.2660
274.636	103.2641
274.793	103.2620
274.951	103.2600
275.111	103.2579
275.270	103.2560
275.430	103.2540
275.586	103.2519
275.741	103.2498
275.895	103.2477
276.046	103.2456
276.193	103.2436
276.336	103.2416
276.478	103.2395
276.620	103.2375
276.766	103.2354
276.918	103.2334
277.062	103.2314
277.213	103.2294
277.361	103.2274
277.504	103.2255
277.645	103.2235
277.789	103.2214
277.930	103.2192
278.068	103.2171
278.208	103.2150
278.350	103.2131
278.491	103.2111
278.639	103.2092
278.794	103.2072
278.949	103.2053
279.108	103.2033
279.263	103.2013
279.409	103.1994
279.558	103.1974
279.703	103.1954
279.848	103.1934
279.992	103.1915
280.135	103.1894
280.280	103.1874
280.429	103.1853
280.580	103.1833
280.733	103.1814
280.892	103.1795
281.053	103.1777
281.218	103.1757
281.383	103.1736
281.546	103.1716
281.706	103.1696
281.857	103.1677
282.009	103.1658
282.155	103.1638
282.297	103.1619
282.439	103.1599
282.584	103.1578
282.727	103.1558
282.873	103.1538
283.021	103.1519
283.165	103.1500
283.314	103.1481
283.460	103.1461
283.609	103.1443
283.758	103.1423
283.911	103.1404
284.063	103.1386
284.223	103.1366
284.376	103.1346
284.529	103.1326
284.683	103.1308
284.834	103.1288
284.988	103.1268
285.139	103.1249
285.286	103.1230
285.433	103.1211
285.580	103.1192
285.721	103.1173
285.866	103.1153
286.014	103.1134
286.163	103.1116
286.311	103.1098
286.465	103.1080
286.615	103.1061
286.769	103.1043
286.926	103.1024
287.081	103.1007
287.239	103.0988
287.397	103.0969
287.554	103.0948
287.708	103.0929
287.864	103.0911
288.019	103.0892
288.172	103.0874
288.326	103.0857
288.476	103.0840
288.626	103.0822
288.779	103.0804
288.931	103.0787
289.085	103.0769
289.242	103.0750
289.401	103.0731
289.564	103.0712
289.729	103.0694
289.892	103.0675
290.052	103.0658
290.207	103.0640
290.360	103.0622
290.506	103.0602
290.655	103.0584
290.808	103.0565
290.957	103.0546
291.105	103.0529
291.254	103.0511
291.402	103.0493
291.548	103.0475
291.696	103.0457
291.843	103.0439
291.994	103.0421
292.146	103.0405
292.301	103.0388
292.454	103.0370
292.605	103.0351
292.755	103.0333
292.904	103.0315
293.053	103.0297
293.206	103.0279
293.359	103.0261
293.513	103.0244
293.672	103.0226
293.837	103.0208
294.005	103.0191
294.168	103.0173
294.331	103.0155
294.488	103.0139
294.645	103.0122
294.805	103.0105
294.964	103.0088
295.123	103.0072
295.283	103.0053
295.440	103.0035
295.599	103.0017
295.760	102.9998
295.927	102.9980
296.096	102.9963
296.270	102.9947
296.438	102.9929
296.597	102.9913
296.753	102.9896
296.902	102.9878
297.041	102.9861
297.181	102.9844
297.321	102.9827
297.460	102.9810
297.601	102.9793
297.744	102.9776
297.891	102.9759
298.046	102.9742
298.209	102.9726
298.372	102.9710
298.533	102.9693
298.685	102.9676
298.833	102.9660
298.977	102.9643
299.126	102.9627
299.278	102.9610
299.432	102.9594
299.586	102.9578
299.744	102.9562
299.900	102.9545
300.060	102.9528
300.222	102.9512
300.383	102.9495
300.545	102.9479
300.708	102.9463
300.868	102.9448
301.026	102.9432
301.177	102.9415
301.328	102.9399
301.479	102.9384
301.629	102.9368
301.780	102.9351
301.928	102.9333
302.073	102.9316
302.218	102.9300
302.362	102.9284
302.508	102.9268
302.657	102.9252
302.804	102.9235
302.958	102.9219
303.107	102.9203
303.254	102.9188
303.399	102.9172
303.544	102.9157
303.688	102.9141
303.834	102.9126
303.977	102.9110
304.125	102.9095
304.275	102.9080
304.426	102.9065
304.577	102.9049
304.726	102.9033
304.880	102.9019
305.032	102.9004
305.186	102.8988
305.338	102.8973
305.485	102.8956
305.621	102.8940
305.749	102.8924
305.877	102.8910
306.011	102.8895
306.158	102.8880
306.314	102.8863
306.469	102.8848
306.630	102.8832
306.781	102.8817
306.932	102.8802
307.083	102.8786
307.233	102.8771
307.385	102.8756
307.544	102.8740
307.709	102.8726
307.874	102.8712
308.038	102.8697
308.200	102.8683
308.356	102.8668
308.505	102.8653
308.650	102.8639
308.793	102.8623
308.937	102.8607
309.079	102.8592
309.225	102.8578
309.369	102.8563
309.519	102.8549
309.673	102.8535
309.826	102.8519
309.982	102.8504
310.141	102.8489
310.303	102.8473
310.473	102.8458
310.649	102.8443
310.828	102.8429
311.000	102.8415
311.168	102.8400
311.331	102.8386
311.488	102.8371
311.646	102.8356
311.802	102.8342
311.955	102.8328
312.112	102.8314
312.267	102.8299
312.425	102.8285
312.581	102.8271
312.736	102.8257
312.893	102.8242
313.052	102.8227
313.214	102.8213
313.376	102.8198
313.537	102.8184
313.695	102.8171
313.845	102.8156
313.991	102.8141
314.139	102.8126
314.288	102.8111
314.442	102.8097
314.593	102.8083
314.745	102.8070
314.895	102.8056
315.043	102.8042
315.189	102.8028
315.336	102.8014
315.483	102.7999
315.631	102.7985
315.781	102.7970
315.936	102.7956
316.090	102.7943
316.246	102.7929
316.401	102.7915
316.559	102.7901
316.717	102.7887
316.874	102.7874
317.035	102.7859
317.196	102.7845
317.360	102.7831
317.523	102.7816
317.683	102.7801
317.840	102.7788
317.997	102.7774
318.153	102.7761
318.309	102.7747
318.461	102.7734
318.611	102.7721
318.759	102.7708
318.902	102.7695
319.046	102.7681
319.196	102.7667
319.354	102.7653
319.518	102.7639
319.682	102.7625
319.837	102.7611
319.992	102.7598
320.146	102.7584
320.306	102.7570
320.470	102.7556
320.632	102.7543
320.792	102.7529
320.951	102.7516
321.106	102.7502
321.259	102.7488
321.409	102.7475
321.562	102.7461
321.717	102.7447
321.871	102.7434
322.027	102.7421
322.185	102.7406
322.349	102.7392
322.512	102.7378
322.681	102.7365
322.846	102.7351
323.010	102.7336
323.169	102.7323
323.331	102.7310
323.490	102.7296
323.650	102.7283
323.809	102.7271
323.959	102.7258
324.109	102.7244
324.256	102.7230
324.405	102.7217
324.560	102.7203
324.718	102.7189
324.878	102.7175
325.040	102.7162
325.198	102.7149
325.352	102.7136
325.509	102.7123
325.666	102.7110
325.826	102.7098
325.984	102.7087
326.143	102.7075
326.296	102.7061
326.447	102.7046
326.597	102.7031
326.746	102.7017
326.898	102.7003
327.050	102.6991
327.206	102.6978
327.363	102.6966
327.519	102.6954
327.674	102.6942
327.828	102.6929
327.973	102.6916
328.117	102.6903
328.256	102.6890
328.389	102.6878
328.523	102.6864
328.660	102.6851
328.800	102.6838
328.950	102.6825
329.107	102.6812
329.269	102.6799
329.434	102.6787
329.601	102.6774
329.773	102.6761
329.948	102.6748
330.126	102.6735
330.306	102.6722
330.481	102.6709
330.655	102.6697
330.824	102.6684
330.993	102.6672
331.162	102.6660
331.330	102.6647
331.502	102.6635
331.680	102.6623
331.861	102.6609
332.042	102.6596
332.222	102.6584
332.400	102.6571
332.576	102.6558
332.747	102.6545
332.917	102.6533
333.086	102.6519
333.253	102.6507
333.414	102.6495
333.575	102.6482
333.731	102.6470
333.882	102.6457
334.034	102.6445
334.183	102.6432
334.333	102.6420
334.482	102.6408
334.631	102.6395
334.780	102.6382
334.931	102.6370
335.082	102.6359
335.232	102.6348
335.388	102.6336
335.550	102.6324
335.713	102.6314
335.879	102.6302
336.050	102.6289
336.218	102.6280
336.384	102.6267
336.548	102.6253
336.709	102.6241
336.869	102.6228
337.029	102.6214
337.191	102.6199
337.355	102.6188
337.518	102.6176
337.681	102.6163
337.845	102.6151
338.004	102.6140
338.164	102.6129
338.322	102.6117
338.481	102.6106
338.637	102.6095
338.793	102.6083
338.949	102.6071
339.101	102.6059
339.252	102.6047
339.403	102.6034
339.550	102.6022
339.699	102.6009
339.846	102.5997
339.994	102.5985
340.143	102.5974
340.294	102.5963
340.447	102.5951
340.603	102.5938
340.762	102.5926
340.928	102.5916
341.097	102.5904
341.270	102.5892
341.444	102.5880
341.617	102.5868
341.789	102.5857
341.959	102.5844
342.127	102.5833
342.292	102.5822
342.453	102.5810
342.607	102.5798
342.754	102.5786
342.892	102.5774
343.022	102.5765
343.152	102.5753
343.280	102.5742
343.409	102.5730
343.543	102.5717
343.681	102.5704
343.824	102.5693
343.969	102.5682
344.119	102.5671
344.269	102.5660
344.424	102.5650
344.579	102.5638
344.733	102.5626
344.891	102.5615
345.046	102.5604
345.206	102.5594
345.364	102.5583
345.521	102.5573
345.674	102.5562
345.823	102.5552
345.968	102.5541
346.113	102.5529
346.262	102.5517
346.417	102.5506
346.579	102.5495
346.741	102.5483
346.902	102.5472
347.058	102.5460
347.209	102.5449
347.363	102.5437
347.515	102.5425
347.672	102.5414
347.837	102.5405
348.007	102.5394
348.178	102.5383
348.349	102.5371
348.515	102.5360
348.678	102.5349
348.837	102.5339
348.987	102.5329
349.132	102.5318
349.276	102.5308
349.416	102.5299
349.562	102.5288
349.710	102.5277
349.862	102.5266
350.011	102.5254
350.158	102.5243
350.308	102.5232
350.470	102.5220
350.638	102.5209
350.803	102.5198
350.960	102.5186
351.114	102.5176
351.268	102.5166
351.423	102.5155
351.580	102.5145
351.737	102.5135
351.896	102.5125
352.057	102.5115
352.216	102.5105
352.376	102.5093
352.546	102.5082
352.723	102.5071
352.900	102.5060
353.075	102.5049
353.245	102.5040
353.408	102.5030
353.566	102.5020
353.717	102.5009
353.867	102.4999
354.016	102.4989
354.165	102.4978
354.316	102.4968
354.472	102.4957
354.637	102.4947
354.805	102.4937
354.977	102.4927
355.143	102.4917
355.308	102.4907
355.471	102.4896
355.633	102.4886
355.795	102.4874
355.962	102.4864
356.132	102.4855
356.305	102.4845
356.476	102.4834
356.642	102.4824
356.803	102.4815
356.965	102.4805
357.130	102.4794
357.297	102.4785
357.460	102.4775
357.618	102.4764
357.776	102.4754
357.931	102.4743
358.088	102.4732
358.240	102.4722
358.392	102.4711
358.539	102.4700
358.687	102.4690
358.834	102.4680
358.985	102.4670
359.138	102.4660
359.290	102.4650
359.446	102.4639
359.603	102.4629
359.762	102.4619
359.922	102.4609
360.083	102.4599
360.247	102.4590
360.410	102.4582
360.570	102.4571
360.727	102.4561
360.881	102.4550
361.031	102.4539
361.177	102.4529
361.327	102.4518
361.479	102.4508
361.638	102.4499
361.798	102.4489
361.961	102.4479
362.127	102.4469
362.291	102.4458
362.455	102.4448
362.620	102.4439
362.786	102.4430
362.951	102.4420
363.113	102.4411
363.268	102.4401
363.427	102.4391
363.585	102.4380
363.745	102.4370
363.906	102.4360
364.076	102.4350
364.254	102.4340
364.429	102.4330
364.602	102.4322
364.772	102.4313
364.937	102.4302
365.098	102.4293
365.260	102.4283
365.423	102.4273
365.587	102.4263
365.757	102.4253
365.928	102.4243
366.101	102.4233
366.279	102.4223
366.453	102.4213
366.623	102.4203
366.788	102.4193
366.949	102.4181
367.105	102.4171
367.257	102.4161
367.405	102.4151
367.553	102.4141
367.702	102.4132
367.853	102.4121
368.004	102.4110
368.160	102.4101
368.323	102.4092
368.491	102.4083
368.662	102.4074
368.829	102.4063
368.995	102.4052
369.153	102.4042
369.308	102.4032
369.461	102.4022
369.612	102.4011
369.763	102.4000
369.917	102.3990
370.069	102.3980
370.221	102.3969
370.379	102.3958
370.542	102.3948
370.713	102.3939
370.890	102.3930
371.073	102.3920
371.253	102.3910
371.424	102.3901
371.581	102.3891
371.731	102.3880
371.876	102.3869
372.029	102.3858
372.190	102.3848
372.362	102.3837
372.538	102.3826
372.719	102.3814
372.893	102.3803
373.063	102.3793
373.232	102.3782
373.392	102.3772
373.547	102.3761
373.699	102.3750
373.846	102.3740
373.995	102.3727
374.144	102.3716
374.294	102.3706
374.443	102.3696
374.593	102.3684
374.742	102.3672
374.894	102.3659
375.051	102.3645
375.210	102.3634
375.376	102.3624
375.541	102.3614
375.710	102.3604
375.876	102.3595
376.042	102.3585
376.210	102.3573
376.379	102.3561
376.555	102.3549
376.736	102.3538
376.919	102.3527
377.096	102.3517
377.262	102.3505
377.419	102.3493
377.573	102.3481
377.719	102.3469
377.867	102.3457
378.020	102.3446
378.175	102.3434
378.328	102.3422
378.477	102.3411
378.628	102.3399
378.785	102.3387
378.950	102.3376
379.126	102.3365
379.312	102.3354
379.498	102.3341
379.672	102.3328
379.833	102.3316
379.987	102.3304
380.132	102.3292
380.279	102.3280
380.432	102.3268
380.589	102.3256
380.749	102.3243
380.911	102.3231
381.075	102.3218
381.245	102.3206
381.418	102.3193
381.596	102.3181
381.772	102.3169
381.941	102.3156
382.107	102.3144
382.266	102.3131
382.425	102.3119
382.585	102.3106
382.751	102.3092
382.923	102.3079
383.092	102.3066
383.256	102.3053
383.413	102.3039
383.566	102.3026
383.718	102.3013
383.875	102.3000
384.032	102.2987
384.181	102.2974
384.321	102.2961
384.450	102.2947
384.579	102.2933
384.713	102.2919
384.854	102.2904
384.999	102.2890
385.148	102.2876
385.302	102.2863
385.457	102.2849
385.621	102.2836
385.788	102.2822
385.965	102.2807
386.147	102.2794
386.326	102.2781
386.498	102.2767
386.673	102.2752
386.850	102.2739
387.029	102.2725
387.206	102.2712
387.378	102.2697
387.546	102.2682
387.714	102.2667
387.883	102.2653
388.052	102.2639
388.221	102.2625
388.391	102.2611
388.560	102.2598
388.726	102.2583
388.889	102.2569
389.050	102.2556
389.212	102.2541
389.372	102.2526
389.532	102.2512
389.693	102.2497
389.856	102.2483
390.021	102.2468
390.188	102.2454
390.355	102.2439
390.522	102.2424
390.690	102.2410
390.860	102.2396
391.027	102.2381
391.192	102.2367
391.355	102.2350
391.521	102.2335
391.681	102.2319
391.835	102.2304
391.986	102.2289
392.136	102.2274
392.285	102.2261
392.433	102.2247
392.580	102.2232
392.728	102.2215
392.878	102.2199
393.031	102.2183
393.181	102.2166
393.329	102.2149
393.477	102.2134
393.631	102.2120
393.793	102.2105
393.962	102.2090
394.132	102.2076
394.298	102.2061
394.464	102.2046
394.628	102.2031
394.796	102.2017
394.966	102.2001
395.133	102.1986
395.297	102.1971
395.463	102.1956
395.637	102.1941
395.815	102.1925
395.997	102.1911
396.179	102.1896
396.358	102.1881
396.531	102.1865
396.696	102.1849
396.853	102.1833
397.003	102.1817
397.152	102.1800
397.303	102.1784
397.451	102.1769
397.595	102.1754
397.740	102.1740
397.888	102.1725
398.039	102.1710
398.192	102.1694
398.343	102.1678
398.500	102.1663
398.664	102.1647
398.836	102.1632
399.009	102.1616
399.181	102.1600
399.355	102.1584
399.536	102.1568
399.716	102.1552
399.883	102.1536
400.038	102.1522
400.188	102.1507
400.345	102.1491
400.513	102.1476
400.686	102.1460
400.858	102.1444
401.025	102.1428
401.184	102.1412
401.340	102.1396
401.503	102.1380
401.669	102.1363
401.839	102.1347
402.011	102.1331
402.187	102.1315
402.362	102.1299
402.533	102.1285
402.700	102.1268
402.867	102.1252
403.034	102.1236
403.199	102.1220
403.357	102.1204
403.511	102.1188
403.662	102.1171
403.819	102.1155
403.979	102.1139
404.140	102.1123
404.300	102.1107
404.458	102.1091
404.617	102.1074
404.776	102.1059
404.942	102.1043
405.111	102.1026
405.283	102.1009
405.453	102.0994
405.621	102.0978
405.793	102.0962
405.968	102.0945
406.142	102.0929
406.307	102.0913
406.458	102.0898
406.600	102.0883
406.738	102.0867
406.874	102.0850
407.013	102.0834
407.157	102.0817
407.304	102.0801
407.453	102.0785
407.606	102.0768
407.761	102.0752
407.924	102.0735
408.095	102.0717
408.268	102.0701
408.433	102.0685
408.590	102.0668
408.743	102.0652
408.902	102.0635
409.066	102.0618
409.235	102.0601
409.405	102.0586
409.576	102.0570
409.751	102.0554
409.931	102.0537
410.111	102.0521
410.294	102.0506
410.477	102.0489
410.662	102.0471
410.844	102.0454
411.029	102.0438
411.214	102.0422
411.397	102.0407
411.577	102.0390
411.748	102.0373
411.913	102.0354
412.073	102.0337
412.230	102.0321
412.388	102.0304
412.548	102.0288
412.711	102.0272
412.875	102.0255
413.042	102.0240
413.209	102.0225
413.375	102.0207
413.535	102.0191
413.692	102.0175
413.848	102.0158
414.008	102.0141
414.173	102.0124
414.340	102.0108
414.505	102.0090
414.667	102.0075
414.830	102.0058
414.997	102.0042
415.170	102.0025
415.344	102.0009
415.516	101.9993
415.692	101.9976
415.872	101.9959
416.056	101.9942
416.244	101.9925
416.430	101.9907
416.615	101.9892
416.795	101.9874
416.971	101.9857
417.145	101.9841
417.317	101.9824
417.490	101.9807
417.661	101.9791
417.829	101.9774
417.996	101.9758
418.160	101.9741
418.320	101.9724
418.481	101.9707
418.642	101.9691
418.802	101.9674
418.965	101.9657
419.127	101.9640
419.287	101.9623
419.447	101.9607
419.606	101.9591
419.760	101.9575
419.914	101.9558
420.068	101.9542
420.222	101.9525
420.372	101.9509
420.522	101.9492
420.671	101.9476
420.823	101.9459
420.977	101.9442
421.132	101.9426
421.285	101.9410
421.441	101.9395
421.594	101.9379
421.746	101.9362
421.896	101.9346
422.047	101.9330
422.197	101.9315
422.349	101.9298
422.506	101.9282
422.665	101.9266
422.828	101.9249
422.991	101.9232
423.154	101.9216
423.312	101.9199
423.465	101.9183
423.612	101.9167
423.754	101.9151
423.896	101.9135
424.043	101.9118
424.197	101.9101
424.354	101.9086
424.514	101.9070
424.677	101.9054
424.844	101.9038
425.014	101.9022
425.182	101.9008
425.343	101.8993
425.498	101.8977
425.650	101.8960
425.800	101.8943
425.955	101.8928
426.116	101.8913
426.282	101.8897
426.446	101.8881
426.609	101.8866
426.771	101.8850
426.933	101.8834
427.096	101.8816
427.260	101.8799
427.425	101.8782
427.591	101.8766
427.761	101.8750
427.931	101.8735
428.100	101.8719
428.266	101.8704
428.433	101.8688
428.595	101.8672
428.757	101.8657
428.916	101.8641
429.075	101.8625
429.237	101.8610
429.403	101.8596
429.574	101.8580
429.745	101.8564
429.909	101.8549
430.073	101.8533
430.238	101.8517
430.404	101.8502
430.567	101.8487
430.728	101.8471
430.889	101.8456
431.045	101.8441
431.201	101.8426
431.357	101.8411
431.517	101.8396
431.676	101.8381
431.834	101.8367
431.992	101.8353
432.151	101.8338
432.312	101.8322
432.478	101.8307
432.646	101.8292
432.814	101.8278
432.982	101.8263
433.154	101.8249
433.325	101.8234
433.497	101.8219
433.668	101.8203
433.840	101.8189
434.014	101.8174
434.189	101.8161
434.362	101.8146
434.532	101.8133
434.704	101.8119
434.874	101.8105
435.042	101.8091
435.211	101.8076
435.382	101.8060
435.546	101.8045
435.702	101.8029
435.852	101.8015
435.999	101.7999
436.143	101.7985
436.288	101.7970
436.434	101.7957
436.581	101.7943
436.730	101.7929
436.880	101.7915
437.032	101.7900
437.184	101.7886
437.339	101.7872
437.495	101.7858
437.653	101.7844
437.814	101.7831
437.975	101.7816
438.137	101.7803
438.302	101.7791
438.468	101.7777
438.635	101.7765
438.802	101.7751
438.971	101.7737
439.144	101.7722
439.321	101.7708
439.500	101.7694
439.678	101.7680
439.854	101.7666
440.024	101.7654
440.190	101.7640
440.357	101.7627
440.525	101.7615
440.694	101.7602
440.854	101.7588
441.013	101.7575
441.172	101.7560
441.336	101.7546
441.497	101.7532
441.650	101.7521
441.800	101.7508
441.946	101.7495
442.096	101.7482
442.245	101.7469
442.397	101.7457
442.560	101.7444
442.735	101.7430
442.911	101.7416
443.083	101.7404
443.252	101.7392
443.421	101.7379
443.587	101.7366
443.747	101.7353
443.902	101.7340
444.053	101.7327
444.208	101.7314
444.364	101.7301
444.520	101.7289
444.679	101.7276
444.845	101.7264
445.017	101.7252
445.186	101.7240
445.350	101.7227
445.515	101.7215
445.683	101.7202
445.846	101.7191
445.999	101.7180
446.147	101.7167
446.295	101.7155
446.446	101.7142
446.601	101.7130
446.764	101.7118
446.932	101.7107
447.102	101.7094
447.266	101.7083
447.427	101.7071
447.589	101.7059
447.750	101.7047
447.907	101.7035
448.064	101.7023
448.224	101.7011
448.383	101.7000
448.541	101.6989
448.698	101.6977
448.856	101.6964
449.014	101.6953
449.179	101.6943
449.348	101.6932
449.519	101.6921
449.700	101.6909
449.886	101.6896
450.078	101.6884
450.272	101.6871
450.460	101.6859
450.646	101.6848
450.829	101.6837
451.008	101.6826
451.184	101.6816
451.356	101.6805
451.526	101.6794
451.693	101.6782
451.856	101.6770
452.013	101.6759
452.169	101.6748
452.329	101.6738
452.489	101.6728
452.650	101.6717
452.814	101.6705
452.976	101.6693
453.135	101.6681
453.290	101.6670
453.441	101.6659
453.596	101.6648
453.751	101.6638
453.906	101.6628
454.063	101.6617
454.223	101.6605
454.385	101.6594
454.550	101.6584
454.716	101.6573
454.886	101.6563
455.051	101.6553
455.211	101.6543
455.371	101.6532
455.527	101.6522
455.687	101.6511
455.850	101.6500
456.004	101.6490
456.152	101.6480
456.299	101.6470
456.450	101.6459
456.608	101.6450
456.764	101.6440
456.917	101.6430
457.063	101.6420
457.211	101.6409
457.357	101.6399
457.501	101.6389
457.641	101.6379
457.783	101.6370
457.934	101.6361
458.094	101.6353
458.260	101.6343
458.425	101.6333
458.587	101.6322
458.746	101.6312
458.905	101.6301
459.065	101.6291
459.231	101.6282
459.401	101.6273
459.575	101.6263
459.754	101.6253
459.934	101.6244
460.114	101.6234
460.289	101.6224
460.458	101.6214
460.618	101.6205
460.773	101.6196
460.930	101.6188
461.090	101.6179
461.247	101.6170
461.391	101.6160
461.529	101.6152
461.664	101.6142
461.811	101.6132
461.971	101.6122
462.138	101.6112
462.308	101.6102
462.477	101.6093
462.640	101.6084
462.793	101.6076
462.945	101.6067
463.110	101.6058
463.288	101.6049
463.464	101.6040
463.637	101.6030
463.803	101.6021
463.971	101.6013
464.139	101.6004
464.306	101.5996
464.473	101.5987
464.639	101.5978
464.802	101.5969
464.961	101.5960
465.121	101.5950
465.281	101.5942
465.441	101.5933
465.600	101.5924
465.755	101.5916
465.911	101.5908
466.068	101.5899
466.226	101.5890
466.382	101.5882
466.543	101.5874
466.709	101.5867
466.880	101.5859
467.058	101.5850
467.244	101.5841
467.431	101.5832
467.615	101.5823
467.793	101.5815
467.971	101.5807
468.157	101.5798
468.343	101.5789
468.529	101.5781
468.710	101.5773
468.882	101.5765
469.040	101.5757
469.191	101.5750
469.346	101.5742
469.510	101.5734
469.678	101.5727
469.843	101.5720
470.006	101.5711
470.171	101.5703
470.338	101.5695
470.502	101.5687
470.666	101.5679
470.832	101.5671
470.996	101.5663
471.160	101.5655
471.328	101.5648
471.498	101.5640
471.663	101.5633
471.819	101.5626
471.975	101.5618
472.137	101.5608
472.309	101.5600
472.481	101.5592
472.647	101.5584
472.813	101.5576
472.977	101.5568
473.146	101.5561
473.316	101.5553
473.486	101.5546
473.656	101.5538
473.826	101.5529
473.994	101.5521
474.161	101.5514
474.326	101.5507
474.495	101.5499
474.662	101.5493
474.829	101.5486
474.996	101.5479
475.157	101.5472
475.316	101.5464
475.473	101.5457
475.625	101.5448
475.768	101.5439
475.903	101.5431
476.034	101.5423
476.165	101.5416
476.301	101.5410
476.440	101.5404
476.586	101.5397
476.737	101.5390
476.895	101.5382
477.051	101.5375
477.210	101.5369
477.368	101.5362
477.539	101.5356
477.721	101.5349
477.918	101.5341
478.122	101.5333
478.331	101.5326
478.540	101.5319
478.749	101.5312
478.950	101.5305
479.145	101.5297
479.328	101.5290
479.501	101.5282
479.672	101.5275
479.844	101.5268
480.012	101.5262
480.181	101.5255
480.346	101.5248
480.510	101.5242
480.676	101.5234
480.842	101.5227
481.009	101.5219
481.180	101.5212
481.350	101.5205
481.518	101.5199
481.686	101.5192
481.849	101.5186
482.005	101.5178
482.159	101.5171
482.311	101.5163
482.465	101.5156
482.621	101.5149
482.784	101.5143
482.956	101.5137
483.131	101.5130
483.310	101.5124
483.490	101.5117
483.671	101.5110
483.848	101.5103
484.027	101.5097
484.205	101.5090
484.383	101.5083
484.556	101.5076
484.727	101.5069
484.895	101.5062
485.068	101.5056
485.245	101.5049
485.427	101.5041
485.614	101.5034
485.803	101.5028
485.996	101.5021
486.179	101.5016
486.341	101.5010
486.486	101.5004
486.627	101.4996
486.767	101.4989
486.909	101.4982
487.056	101.4975
487.214	101.4969
487.379	101.4962
487.552	101.4956
487.726	101.4949
487.897	101.4942
488.061	101.4936
488.212	101.4928
488.356	101.4921
488.507	101.4914
488.664	101.4908
488.818	101.4901
488.966	101.4895
489.120	101.4887
489.289	101.4881
489.469	101.4875
489.652	101.4870
489.825	101.4864
489.990	101.4857
490.151	101.4850
490.309	101.4845
490.468	101.4838
490.629	101.4832
490.800	101.4827
490.974	101.4820
491.148	101.4813
491.318	101.4807
491.488	101.4802
491.662	101.4796
491.843	101.4789
492.028	101.4783
492.212	101.4777
492.395	101.4770
492.576	101.4764
492.758	101.4757
492.941	101.4751
493.115	101.4744
493.265	101.4738
493.386	101.4732
493.499	101.4726
493.628	101.4720
493.778	101.4713
493.939	101.4708
494.112	101.4701
494.286	101.4694
494.456	101.4688
494.615	101.4682
494.763	101.4677
494.915	101.4670
495.085	101.4664
495.268	101.4658
495.438	101.4652
495.592	101.4645
495.738	101.4639
495.877	101.4633
496.011	101.4627
496.147	101.4620
496.288	101.4614
496.426	101.4608
496.564	101.4602
496.704	101.4595
496.847	101.4589
497.004	101.4584
497.166	101.4578
497.332	101.4572
497.505	101.4566
497.677	101.4560
497.844	101.4554
498.007	101.4550
498.178	101.4543
498.359	101.4538
498.550	101.4531
498.742	101.4524
498.936	101.4517
499.135	101.4510
499.333	101.4505
499.531	101.4499
499.726	101.4493
499.917	101.4487
500.095	101.4482
500.250	101.4476
500.391	101.4470
500.527	101.4465
500.662	101.4458
500.807	101.4453
500.962	101.4448
501.123	101.4442
501.288	101.4436
501.454	101.4431
501.621	101.4425
501.794	101.4418
501.975	101.4412
502.169	101.4407
502.376	101.4401
502.596	101.4395
502.814	101.4389
503.014	101.4383
503.182	101.4378
503.331	101.4372
503.473	101.4365
503.613	101.4359
503.754	101.4353
503.895	101.4348
504.033	101.4342
504.173	101.4337
504.316	101.4330
504.470	101.4324
504.633	101.4318
504.798	101.4312
504.968	101.4307
505.149	101.4301
505.327	101.4295
505.494	101.4290
505.651	101.4285
505.805	101.4279
505.966	101.4272
506.122	101.4266
506.269	101.4260
506.417	101.4255
506.571	101.4250
506.726	101.4246
506.884	101.4241
507.042	101.4236
507.205	101.4230
507.373	101.4225
507.552	101.4220
507.741	101.4214
507.926	101.4208
508.098	101.4202
508.258	101.4196
508.407	101.4190
508.560	101.4184
508.719	101.4178
508.888	101.4170
509.051	101.4163
509.208	101.4158
509.369	101.4154
509.535	101.4151
509.692	101.4147
509.833	101.4143
509.965	101.4137
510.093	101.4132
510.229	101.4128
510.373	101.4123
510.525	101.4118
510.690	101.4112
510.863	101.4105
511.047	101.4099
511.251	101.4093
511.468	101.4086
511.680	101.4080
511.876	101.4073
512.060	101.4069
512.239	101.4064
512.413	101.4060
512.577	101.4054
512.731	101.4049
512.880	101.4044
513.030	101.4038
513.181	101.4033
513.333	101.4028
513.495	101.4023
513.661	101.4018
513.815	101.4012
513.962	101.4006
514.112	101.4001
514.273	101.3996
514.447	101.3990
514.628	101.3984
514.805	101.3978
514.977	101.3973
515.145	101.3968
515.315	101.3963
515.486	101.3957
515.658	101.3952
515.823	101.3947
515.982	101.3941
516.135	101.3936
516.288	101.3930
516.448	101.3925
516.606	101.3920
516.752	101.3916
516.889	101.3911
517.032	101.3905
517.190	101.3899
517.357	101.3894
517.535	101.3887
517.718	101.3880
517.901	101.3874
518.070	101.3869
518.229	101.3864
518.387	101.3860
518.534	101.3855
518.669	101.3850
518.808	101.3846
518.955	101.3840
519.110	101.3835
519.282	101.3829
519.472	101.3823
519.666	101.3818
519.854	101.3812
520.038	101.3807
520.217	101.3801
520.380	101.3797
520.520	101.3792
520.653	101.3788
520.803	101.3782
520.969	101.3777
521.143	101.3772
521.320	101.3767
521.497	101.3761
521.676	101.3756
521.855	101.3751
522.029	101.3746
522.197	101.3742
522.362	101.3738
522.524	101.3732
522.691	101.3727
522.869	101.3722
523.053	101.3716
523.237	101.3712
523.416	101.3709
523.587	101.3704
523.748	101.3698
523.901	101.3693
524.044	101.3687
524.190	101.3681
524.349	101.3676
524.512	101.3671
524.676	101.3666
524.838	101.3659
524.989	101.3652
525.129	101.3647
525.262	101.3642
525.396	101.3636
525.535	101.3631
525.681	101.3625
525.834	101.3619
525.987	101.3614
526.136	101.3610
526.286	101.3605
526.449	101.3601
526.624	101.3597
526.809	101.3593
527.002	101.3589
527.188	101.3584
527.356	101.3580
527.512	101.3576
527.667	101.3571
527.824	101.3566
527.984	101.3561
528.139	101.3557
528.288	101.3553
528.436	101.3547
528.586	101.3540
528.743	101.3534
528.909	101.3527
529.081	101.3521
529.254	101.3516
529.429	101.3512
529.599	101.3509
529.769	101.3505
529.943	101.3500
530.116	101.3496
530.286	101.3490
530.454	101.3484
530.630	101.3480
530.817	101.3475
531.005	101.3472
531.192	101.3467
531.374	101.3464
531.549	101.3459
531.721	101.3455
531.892	101.3449
532.061	101.3443
532.226	101.3438
532.388	101.3434
532.558	101.3429
532.737	101.3424
532.918	101.3419
533.105	101.3415
533.290	101.3412
533.466	101.3408
533.633	101.3403
533.794	101.3398
533.953	101.3392
534.113	101.3386
534.275	101.3380
534.440	101.3375
534.607	101.3370
534.775	101.3364
534.938	101.3359
535.094	101.3355
535.249	101.3351
535.410	101.3346
535.581	101.3341
535.756	101.3335
535.929	101.3329
536.099	101.3325
536.267	101.3321
536.434	101.3317
536.596	101.3313
536.754	101.3308
536.913	101.3303
537.070	101.3298
537.234	101.3293
537.401	101.3290
537.573	101.3286
537.743	101.3281
537.907	101.3277
538.061	101.3272
538.220	101.3267
538.388	101.3263
538.563	101.3258
538.734	101.3253
538.894	101.3249
539.052	101.3245
539.213	101.3241
539.370	101.3237
539.533	101.3233
539.702	101.3228
539.877	101.3223
540.044	101.3218
540.204	101.3213
540.368	101.3210
540.536	101.3206
540.708	101.3202
540.883	101.3197
541.068	101.3193
541.267	101.3188
541.472	101.3184
541.676	101.3179
541.879	101.3175
542.085	101.3169
542.296	101.3164
542.504	101.3160
542.698	101.3155
542.880	101.3151
543.058	101.3147
543.242	101.3143
543.435	101.3139
543.634	101.3135
543.833	101.3131
544.026	101.3128
544.214	101.3122
544.387	101.3117
544.551	101.3112
544.713	101.3108
544.874	101.3103
545.045	101.3099
545.215	101.3095
545.372	101.3091
545.513	101.3086
545.642	101.3082
545.758	101.3080
545.871	101.3076
545.996	101.3072
546.141	101.3069
546.292	101.3066
546.441	101.3061
546.592	101.3055
546.739	101.3050
546.875	101.3045
546.998	101.3040
547.119	101.3035
547.249	101.3031
547.384	101.3026
547.529	101.3022
547.692	101.3018
547.868	101.3015
548.054	101.3012
548.244	101.3011
548.436	101.3007
548.630	101.3002
548.825	101.2997
549.017	101.2991
549.198	101.2985
549.377	101.2981
549.559	101.2978
549.739	101.2974
549.904	101.2971
550.060	101.2967
550.219	101.2962
550.392	101.2958
550.576	101.2954
550.759	101.2950
550.936	101.2947
551.103	101.2943
551.269	101.2939
551.424	101.2935
551.567	101.2931
551.703	101.2926
551.840	101.2921
551.989	101.2917
552.154	101.2913
552.335	101.2909
552.519	101.2906
552.700	101.2902
552.882	101.2899
553.067	101.2894
553.252	101.2890
553.433	101.2887
553.610	101.2884
553.792	101.2880
553.990	101.2876
554.202	101.2872
554.420	101.2867
554.633	101.2864
554.835	101.2859
555.020	101.2854
555.190	101.2849
555.360	101.2845
555.535	101.2841
555.713	101.2837
555.895	101.2834
556.086	101.2830
556.279	101.2825
556.465	101.2820
556.630	101.2817
556.769	101.2813
556.899	101.2809
557.034	101.2804
557.181	101.2800
557.332	101.2797
557.480	101.2793
557.627	101.2790
557.774	101.2786
557.921	101.2783
558.072	101.2779
558.239	101.2774
558.420	101.2770
558.600	101.2766
558.762	101.2763
558.911	101.2758
559.053	101.2754
559.207	101.2750
559.379	101.2747
559.549	101.2743
559.707	101.2739
559.869	101.2736
560.049	101.2733
560.241	101.2729
560.430	101.2726
560.613	101.2724
560.778	101.2721
560.922	101.2717
561.058	101.2714
561.194	101.2709
561.323	101.2704
561.452	101.2700
561.579	101.2695
561.709	101.2691
561.852	101.2687
562.013	101.2683
562.211	101.2680
562.441	101.2676
562.680	101.2673
562.914	101.2669
563.135	101.2664
563.344	101.2660
563.530	101.2657
563.688	101.2653
563.826	101.2651
563.962	101.2647
564.106	101.2642
564.254	101.2637
564.402	101.2634
564.550	101.2629
564.698	101.2626
564.849	101.2624
565.007	101.2621
565.172	101.2616
565.338	101.2612
565.502	101.2607
565.664	101.2603
565.824	101.2599
565.980	101.2596
566.144	101.2593
566.328	101.2589
566.532	101.2586
566.759	101.2583
567.005	101.2579
567.260	101.2575
567.511	101.2572
567.752	101.2568
567.983	101.2564
568.205	101.2561
568.410	101.2556
568.599	101.2553
568.770	101.2549
568.928	101.2546
569.085	101.2543
569.247	101.2539
569.407	101.2534
569.566	101.2531
569.728	101.2526
569.893	101.2522
570.062	101.2518
570.237	101.2515
570.422	101.2511
570.611	101.2509
570.805	101.2505
571.000	101.2502
571.197	101.2500
571.389	101.2497
571.578	101.2493
571.762	101.2489
571.941	101.2485
572.115	101.2482
572.291	101.2478
572.472	101.2474
572.653	101.2470
572.828	101.2466
573.005	101.2462
573.182	101.2458
573.361	101.2455
573.541	101.2451
573.722	101.2448
573.901	101.2445
574.078	101.2441
574.253	101.2437
574.425	101.2434
574.597	101.2430
574.769	101.2426
574.939	101.2422
575.102	101.2418
575.264	101.2414
575.425	101.2410
575.584	101.2406
575.745	101.2402
575.901	101.2398
576.058	101.2395
576.217	101.2392
576.382	101.2390
576.547	101.2388
576.712	101.2384
576.879	101.2381
577.045	101.2377
577.205	101.2372
577.356	101.2368
577.499	101.2365
577.638	101.2361
577.780	101.2357
577.926	101.2353
578.084	101.2350
578.265	101.2346
578.462	101.2344
578.653	101.2342
578.827	101.2339
578.988	101.2335
579.146	101.2333
579.301	101.2328
579.458	101.2324
579.618	101.2321
579.777	101.2318
579.932	101.2315
580.091	101.2311
580.256	101.2308
580.428	101.2305
580.612	101.2301
580.804	101.2298
580.997	101.2295
581.185	101.2292
581.365	101.2288
581.537	101.2286
581.704	101.2282
581.871	101.2279
582.046	101.2277
582.236	101.2274
582.433	101.2271
582.633	101.2267
582.833	101.2262
583.034	101.2257
583.230	101.2254
583.418	101.2251
583.602	101.2247
583.786	101.2243
583.971	101.2240
584.154	101.2237
584.332	101.2235
584.509	101.2232
584.682	101.2229
584.855	101.2228
585.032	101.2226
585.212	101.2223
585.395	101.2220
585.571	101.2216
585.746	101.2212
585.915	101.2210
586.088	101.2210
586.262	101.2207
586.435	101.2203
586.595	101.2198
586.755	101.2192
586.926	101.2186
587.105	101.2181
587.283	101.2178
587.458	101.2176
587.630	101.2173
587.800	101.2170
587.969	101.2167
588.139	101.2164
588.309	101.2161
588.481	101.2160
588.651	101.2157
588.823	101.2155
588.996	101.2152
589.168	101.2148
589.342	101.2145
589.518	101.2141
589.693	101.2137
589.865	101.2133
590.035	101.2130
590.203	101.2126
590.366	101.2122
590.527	101.2119
590.684	101.2115
590.836	101.2112
590.971	101.2109
591.096	101.2106
591.229	101.2102
591.376	101.2100
591.533	101.2097
591.693	101.2095
591.859	101.2093
592.037	101.2089
592.219	101.2086
592.403	101.2082
592.590	101.2079
592.775	101.2076
592.960	101.2073
593.132	101.2070
593.284	101.2066
593.421	101.2063
593.549	101.2059
593.676	101.2055
593.814	101.2051
593.962	101.2048
594.118	101.2045
594.276	101.2042
594.433	101.2041
594.590	101.2039
594.750	101.2036
594.915	101.2034
595.085	101.2030
595.261	101.2027
595.446	101.2023
595.638	101.2020
595.827	101.2017
596.016	101.2015
596.214	101.2012
596.412	101.2009
596.604	101.2005
596.789	101.2001
596.967	101.1999
597.134	101.1997
597.288	101.1995
597.439	101.1992
597.587	101.1989
597.730	101.1985
597.869	101.1981
598.008	101.1978
598.146	101.1976
598.280	101.1974
598.415	101.1972
598.567	101.1969
598.753	101.1967
598.963	101.1964
599.174	101.1960
599.376	101.1956
599.578	101.1953
599.781	101.1950
599.981	101.1948
600.172	101.1945
600.358	101.1942
600.536	101.1939
600.709	101.1936
600.883	101.1934
601.063	101.1931
601.245	101.1929
601.424	101.1927
601.597	101.1924
601.765	101.1922
601.928	101.1918
602.095	101.1914
602.260	101.1911
602.416	101.1908
602.551	101.1905
602.667	101.1901
602.777	101.1898
602.897	101.1896
603.034	101.1894
603.188	101.1892
603.350	101.1890
603.513	101.1886
603.678	101.1884
603.844	101.1882
604.010	101.1880
604.180	101.1877
604.354	101.1873
604.524	101.1871
604.696	101.1868
604.871	101.1865
605.042	101.1862
605.215	101.1859
605.385	101.1856
605.556	101.1854
605.730	101.1852
605.913	101.1850
606.113	101.1847
606.317	101.1844
606.515	101.1842
606.706	101.1839
606.885	101.1837
607.063	101.1834
607.241	101.1830
607.422	101.1826
607.601	101.1823
607.777	101.1821
607.952	101.1818
608.123	101.1816
608.296	101.1814
608.462	101.1811
608.630	101.1809
608.790	101.1807
608.947	101.1804
609.102	101.1802
609.257	101.1799
609.413	101.1796
609.569	101.1793
609.722	101.1790
609.881	101.1787
610.037	101.1784
610.188	101.1781
610.349	101.1778
610.516	101.1776
610.694	101.1774
610.880	101.1773
611.066	101.1770
611.243	101.1767
611.404	101.1764
611.566	101.1761
611.733	101.1758
611.907	101.1755
612.088	101.1753
612.268	101.1750
612.456	101.1747
612.652	101.1746
612.856	101.1744
613.045	101.1742
613.219	101.1740
613.377	101.1737
613.533	101.1735
613.687	101.1732
613.839	101.1730
613.991	101.1728
614.142	101.1726
614.296	101.1725
614.452	101.1723
614.607	101.1720
614.764	101.1717
614.916	101.1713
615.064	101.1710
615.214	101.1707
615.369	101.1704
615.532	101.1701
615.690	101.1699
615.852	101.1698
616.015	101.1697
616.178	101.1695
616.349	101.1692
616.524	101.1689
616.703	101.1685
616.881	101.1682
617.051	101.1680
617.220	101.1679
617.387	101.1677
617.558	101.1674
617.738	101.1670
617.925	101.1668
618.116	101.1667
618.312	101.1665
618.503	101.1663
618.688	101.1661
618.869	101.1659
619.047	101.1658
619.225	101.1655
619.403	101.1653
619.584	101.1650
619.756	101.1647
619.913	101.1645
620.061	101.1643
620.208	101.1640
620.366	101.1638
620.534	101.1635
620.697	101.1633
620.859	101.1630
621.022	101.1628
621.184	101.1625
621.351	101.1623
621.520	101.1621
621.694	101.1619
621.866	101.1617
622.036	101.1615
622.204	101.1613
622.370	101.1610
622.534	101.1608
622.697	101.1605
622.857	101.1602
623.012	101.1600
623.163	101.1598
623.317	101.1596
623.467	101.1594
623.623	101.1591
623.778	101.1589
623.938	101.1589
624.094	101.1588
624.248	101.1587
624.403	101.1583
624.564	101.1580
624.730	101.1577
624.898	101.1573
625.054	101.1570
625.182	101.1567
625.284	101.1565
625.372	101.1563
625.453	101.1562
625.544	101.1561
625.647	101.1559
625.764	101.1556
625.890	101.1553
626.019	101.1551
626.154	101.1549
626.298	101.1547
626.455	101.1545
626.620	101.1544
626.795	101.1543
626.978	101.1541
627.159	101.1539
627.328	101.1539
627.501	101.1537
627.676	101.1534
627.843	101.1531
628.013	101.1529
628.186	101.1527
628.367	101.1525
628.548	101.1523
628.724	101.1521
628.899	101.1519
629.069	101.1517
629.236	101.1514
629.401	101.1512
629.565	101.1510
629.734	101.1509
629.901	101.1507
630.072	101.1505
630.242	101.1504
630.413	101.1502
630.581	101.1499
630.748	101.1497
630.916	101.1495
631.085	101.1493
631.253	101.1491
631.415	101.1489
631.570	101.1488
631.720	101.1486
631.875	101.1483
632.038	101.1481
632.212	101.1479
632.388	101.1477
632.565	101.1476
632.734	101.1475
632.901	101.1473
633.069	101.1472
633.247	101.1469
633.434	101.1467
633.621	101.1465
633.801	101.1462
633.967	101.1460
634.117	101.1458
634.253	101.1455
634.369	101.1454
634.477	101.1452
634.581	101.1450
634.699	101.1449
634.841	101.1448
635.003	101.1447
635.166	101.1445
635.322	101.1442
635.478	101.1440
635.647	101.1437
635.824	101.1436
636.005	101.1434
636.174	101.1432
636.332	101.1430
636.488	101.1428
636.651	101.1426
636.824	101.1424
637.006	101.1422
637.192	101.1419
637.385	101.1417
637.576	101.1415
637.760	101.1414
637.930	101.1412
638.086	101.1411
638.238	101.1409
638.390	101.1407
638.543	101.1405
638.703	101.1403
638.863	101.1402
639.023	101.1400
639.188	101.1398
639.358	101.1395
639.539	101.1393
639.725	101.1391
639.912	101.1390
640.098	101.1389
640.289	101.1388
640.488	101.1386
640.693	101.1383
640.900	101.1380
641.102	101.1378
641.295	101.1377
641.479	101.1375
641.648	101.1374
641.807	101.1373
641.947	101.1371
642.084	101.1370
642.213	101.1368
642.335	101.1365
642.446	101.1362
642.558	101.1360
642.676	101.1358
642.806	101.1357
642.945	101.1357
643.092	101.1356
643.240	101.1354
643.378	101.1352
643.511	101.1350
643.648	101.1348
643.788	101.1347
643.924	101.1345
644.060	101.1343
644.204	101.1342
644.358	101.1342
644.521	101.1342
644.701	101.1339
644.881	101.1336
645.062	101.1334
645.242	101.1332
645.422	101.1330
645.600	101.1329
645.763	101.1328
645.908	101.1326
646.046	101.1324
646.187	101.1323
646.329	101.1321
646.481	101.1320
646.644	101.1318
646.813	101.1316
646.986	101.1314
647.160	101.1312
647.333	101.1311
647.501	101.1309
647.662	101.1308
647.822	101.1307
647.991	101.1305
648.178	101.1302
648.369	101.1301
648.549	101.1299
648.714	101.1296
648.870	101.1294
649.025	101.1292
649.175	101.1291
649.323	101.1290
649.472	101.1289
649.633	101.1288
649.815	101.1287
650.003	101.1285
650.187	101.1282
650.363	101.1280
650.527	101.1278
650.675	101.1276
650.813	101.1275
650.949	101.1274
651.081	101.1274
651.205	101.1273
651.327	101.1271
651.449	101.1268
651.571	101.1266
651.706	101.1263
651.854	101.1261
652.014	101.1258
652.179	101.1255
652.340	101.1254
652.493	101.1252
652.640	101.1251
652.784	101.1250
652.923	101.1249
653.061	101.1248
653.201	101.1246
653.346	101.1245
653.498	101.1244
653.658	101.1243
653.821	101.1242
653.986	101.1241
654.156	101.1239
654.332	101.1238
654.508	101.1236
654.692	101.1234
654.881	101.1233
655.070	101.1232
655.250	101.1230
655.420	101.1229
655.585	101.1228
655.747	101.1225
655.903	101.1223
656.060	101.1219
656.210	101.1218
656.353	101.1216
656.500	101.1214
656.661	101.1212
656.826	101.1211
656.987	101.1210
657.149	101.1210
657.312	101.1211
657.473	101.1210
657.637	101.1208
657.802	101.1205
657.956	101.1202
658.100	101.1200
658.254	101.1199
658.429	101.1197
658.614	101.1197
658.815	101.1197
659.031	101.1196
659.242	101.1195
659.437	101.1193
659.622	101.1191
659.792	101.1190
659.957	101.1190
660.117	101.1189
660.283	101.1187
660.448	101.1185
660.613	101.1183
660.775	101.1182
660.945	101.1180
661.123	101.1178
661.301	101.1176
661.476	101.1175
661.648	101.1174
661.818	101.1174
661.982	101.1173
662.136	101.1171
662.292	101.1170
662.454	101.1168
662.624	101.1166
662.795	101.1165
662.958	101.1164
663.114	101.1163
663.268	101.1161
663.425	101.1160
663.582	101.1159
663.740	101.1157
663.900	101.1156
664.064	101.1154
664.230	101.1153
664.399	101.1152
664.580	101.1151
664.755	101.1150
664.921	101.1148
665.087	101.1146
665.262	101.1145
665.441	101.1143
665.616	101.1142
665.797	101.1141
665.998	101.1139
666.202	101.1138
666.400	101.1135
666.600	101.1135
666.804	101.1134
666.999	101.1133
667.181	101.1132
667.363	101.1131
667.548	101.1129
667.733	101.1128
667.918	101.1127
668.099	101.1126
668.272	101.1125
668.449	101.1123
668.633	101.1123
668.819	101.1122
669.013	101.1121
669.226	101.1120
669.453	101.1118
669.665	101.1116
669.855	101.1115
670.029	101.1114
670.202	101.1112
670.382	101.1109
670.571	101.1107
670.763	101.1107
670.954	101.1106
671.141	101.1104
671.325	101.1103
671.508	101.1102
671.695	101.1101
671.888	101.1100
672.075	101.1100
672.258	101.1099
672.444	101.1097
672.633	101.1095
672.824	101.1093
673.014	101.1092
673.206	101.1091
673.395	101.1090
673.588	101.1087
673.785	101.1086
673.987	101.1085
674.180	101.1086
674.365	101.1086
674.555	101.1085
674.742	101.1084
674.924	101.1082
675.097	101.1082
675.271	101.1081
675.444	101.1081
675.613	101.1079
675.787	101.1078
675.967	101.1077
676.147	101.1076
676.321	101.1074
676.492	101.1073
676.660	101.1072
676.826	101.1071
676.993	101.1069
677.161	101.1067
677.334	101.1066
677.510	101.1064
677.700	101.1063
677.905	101.1062
678.118	101.1060
678.337	101.1058
678.561	101.1056
678.784	101.1055
679.007	101.1054
679.221	101.1052
679.425	101.1050
679.623	101.1050
679.834	101.1049
680.056	101.1048
680.286	101.1047
680.510	101.1046
680.727	101.1045
680.939	101.1045
681.148	101.1045
681.332	101.1044
681.497	101.1043
681.656	101.1042
681.821	101.1041
681.991	101.1040
682.157	101.1039
682.312	101.1037
682.472	101.1036
682.639	101.1034
682.797	101.1032
682.933	101.1031
683.061	101.1030
683.194	101.1029
683.340	101.1028
683.505	101.1027
683.689	101.1025
683.891	101.1025
684.098	101.1023
684.307	101.1021
684.518	101.1021
684.723	101.1020
684.916	101.1020
685.095	101.1019
685.267	101.1017
685.437	101.1014
685.607	101.1013
685.773	101.1012
685.940	101.1011
686.112	101.1011
686.290	101.1009
686.468	101.1007
686.647	101.1006
686.821	101.1004
686.996	101.1004
687.163	101.1003
687.321	101.1003
687.471	101.1002
687.619	101.1001
687.771	101.0999
687.933	101.0998
688.111	101.0996
688.306	101.0994
688.505	101.0993
688.702	101.0992
688.885	101.0992
689.063	101.0991
689.234	101.0991
689.401	101.0990
689.565	101.0989
689.729	101.0989
689.895	101.0988
690.071	101.0984
690.257	101.0981
690.446	101.0979
690.637	101.0977
690.831	101.0975
691.037	101.0975
691.266	101.0975
691.512	101.0973
691.746	101.0972
691.943	101.0974
692.119	101.0973
692.284	101.0972
692.460	101.0971
692.654	101.0971
692.856	101.0969
693.047	101.0968
693.228	101.0968
693.419	101.0967
693.613	101.0965
693.798	101.0963
693.967	101.0961
694.119	101.0960
694.259	101.0960
694.402	101.0960
694.562	101.0959
694.741	101.0958
694.933	101.0955
695.131	101.0954
695.332	101.0954
695.522	101.0955
695.696	101.0954
695.853	101.0951
695.994	101.0949
696.140	101.0947
696.308	101.0946
696.494	101.0944
696.678	101.0943
696.844	101.0943
696.979	101.0942
697.076	101.0941
697.159	101.0939
697.246	101.0938
697.363	101.0937
697.535	101.0936
697.772	101.0937
698.035	101.0938
698.294	101.0938
698.530	101.0937
698.754	101.0935
698.958	101.0934
699.138	101.0932
699.305	101.0929
699.482	101.0927
699.659	101.0925
699.832	101.0924
700.021	101.0923
700.228	101.0923
700.437	101.0922
700.645	101.0921
700.853	101.0919
701.064	101.0917
701.278	101.0916
701.484	101.0916
701.688	101.0915
701.891	101.0914
702.090	101.0914
702.284	101.0914
702.475	101.0912
702.657	101.0911
702.821	101.0910
702.963	101.0910
703.095	101.0910
703.237	101.0909
703.395	101.0908
703.574	101.0906
703.764	101.0904
703.959	101.0903
704.164	101.0903
704.376	101.0903
704.583	101.0901
704.776	101.0899
704.957	101.0897
705.130	101.0896
705.298	101.0895
705.459	101.0894
705.613	101.0893
705.763	101.0892
705.918	101.0891
706.082	101.0890
706.254	101.0889
706.432	101.0888
706.604	101.0888
706.775	101.0886
706.952	101.0885
707.141	101.0884
707.341	101.0884
707.546	101.0883
707.747	101.0880
707.946	101.0878
708.146	101.0876
708.345	101.0875
708.533	101.0875
708.709	101.0875
708.864	101.0874
709.001	101.0874
709.130	101.0874
709.263	101.0872
709.401	101.0871
709.542	101.0870
709.684	101.0869
709.829	101.0868
709.985	101.0868
710.152	101.0866
710.328	101.0865
710.524	101.0863
710.764	101.0861
711.043	101.0860
711.327	101.0858
711.589	101.0857
711.820	101.0856
712.025	101.0855
712.212	101.0854
712.401	101.0853
712.610	101.0853
712.835	101.0851
713.059	101.0849
713.268	101.0847
713.458	101.0845
713.634	101.0844
713.794	101.0844
713.935	101.0843
714.071	101.0842
714.212	101.0841
714.365	101.0842
714.528	101.0841
714.693	101.0840
714.854	101.0840
715.012	101.0838
715.172	101.0837
715.344	101.0836
715.522	101.0836
715.708	101.0836
715.914	101.0836
716.133	101.0835
716.362	101.0834
716.581	101.0833
716.781	101.0832
716.963	101.0831
717.143	101.0829
717.332	101.0829
717.537	101.0829
717.753	101.0828
717.966	101.0828
718.169	101.0827
718.362	101.0826
718.550	101.0824
718.728	101.0822
718.893	101.0821
719.049	101.0820
719.197	101.0817
719.359	101.0815
719.558	101.0815
719.783	101.0814
720.017	101.0813
720.247	101.0813
720.472	101.0812
720.688	101.0810
720.883	101.0809
721.049	101.0808
721.201	101.0807
721.372	101.0806
721.562	101.0805
721.748	101.0803
721.915	101.0803
722.076	101.0802
722.249	101.0802
722.430	101.0802
722.610	101.0802
722.786	101.0801
722.952	101.0801
723.107	101.0799
723.255	101.0798
723.410	101.0796
723.579	101.0795
723.754	101.0794
723.935	101.0793
724.121	101.0791
724.308	101.0790
724.498	101.0789
724.683	101.0787
724.855	101.0785
725.021	101.0785
725.201	101.0784
725.384	101.0782
725.546	101.0781
725.683	101.0781
725.827	101.0781
725.999	101.0780
726.179	101.0778
726.338	101.0776
726.476	101.0775
726.604	101.0775
726.735	101.0775
726.875	101.0774
727.023	101.0774
727.175	101.0773
727.326	101.0772
727.475	101.0771
727.638	101.0769
727.812	101.0767
728.013	101.0766
728.262	101.0765
728.548	101.0763
728.839	101.0762
729.104	101.0761
729.337	101.0760
729.556	101.0760
729.764	101.0759
729.934	101.0758
730.063	101.0756
730.171	101.0755
730.278	101.0754
730.403	101.0752
730.549	101.0751
730.700	101.0750
730.851	101.0748
731.014	101.0747
731.186	101.0746
731.359	101.0744
731.526	101.0743
731.692	101.0742
731.862	101.0742
732.037	101.0742
732.215	101.0740
732.388	101.0740
732.550	101.0739
732.705	101.0739
732.853	101.0738
732.993	101.0735
733.140	101.0732
733.288	101.0730
733.445	101.0729
733.627	101.0728
733.809	101.0727
733.974	101.0725
734.131	101.0723
734.294	101.0721
734.480	101.0721
734.685	101.0721
734.871	101.0721
735.031	101.0720
735.181	101.0718
735.334	101.0717
735.495	101.0716
735.659	101.0715
735.822	101.0712
735.977	101.0711
736.133	101.0711
736.299	101.0710
736.472	101.0708
736.647	101.0707
736.828	101.0708
737.013	101.0707
737.185	101.0705
737.347	101.0703
737.510	101.0702
737.675	101.0699
737.842	101.0697
738.017	101.0696
738.196	101.0697
738.369	101.0697
738.527	101.0697
738.685	101.0695
738.848	101.0691
739.010	101.0689
739.169	101.0688
739.332	101.0687
739.521	101.0687
739.733	101.0686
739.949	101.0686
740.160	101.0686
740.352	101.0686
740.527	101.0685
740.695	101.0684
740.864	101.0683
741.046	101.0681
741.236	101.0679
741.428	101.0679
741.618	101.0678
741.812	101.0676
742.009	101.0674
742.209	101.0672
742.421	101.0670
742.638	101.0669
742.852	101.0667
743.058	101.0667
743.252	101.0666
743.431	101.0665
743.594	101.0663
743.747	101.0661
743.902	101.0659
744.059	101.0658
744.225	101.0656
744.394	101.0654
744.559	101.0653
744.717	101.0652
744.873	101.0652
745.030	101.0651
745.196	101.0650
745.360	101.0649
745.499	101.0649
745.607	101.0649
745.710	101.0648
745.823	101.0646
745.943	101.0645
746.066	101.0644
746.198	101.0642
746.350	101.0640
746.531	101.0637
746.744	101.0635
746.976	101.0634
747.210	101.0632
747.420	101.0631
747.584	101.0631
747.717	101.0630
747.851	101.0628
747.990	101.0627
748.129	101.0626
748.255	101.0626
748.366	101.0624
748.471	101.0623
748.596	101.0622
748.759	101.0621
748.958	101.0619
749.170	101.0618
749.371	101.0616
749.579	101.0616
749.811	101.0614
750.057	101.0612
750.280	101.0611
750.469	101.0610
750.647	101.0607
750.838	101.0606
751.034	101.0604
751.215	101.0604
751.362	101.0603
751.499	101.0601
751.658	101.0599
751.843	101.0597
752.043	101.0596
752.236	101.0595
752.407	101.0594
752.549	101.0594
752.689	101.0593
752.847	101.0591
753.022	101.0589
753.217	101.0586
753.424	101.0584
753.639	101.0582
753.831	101.0581
753.985	101.0581
754.106	101.0580
754.229	101.0579
754.384	101.0578
754.566	101.0577
754.740	101.0577
754.892	101.0576
755.028	101.0574
755.156	101.0572
755.294	101.0569
755.452	101.0568
755.624	101.0568
755.792	101.0568
755.950	101.0566
756.097	101.0566
756.248	101.0564
756.408	101.0562
756.588	101.0560
756.786	101.0558
757.004	101.0556
757.251	101.0555
757.520	101.0554
757.794	101.0552
758.050	101.0550
758.282	101.0548
758.493	101.0544
758.696	101.0542
758.887	101.0541
759.051	101.0539
759.186	101.0538
759.311	101.0537
759.442	101.0536
759.594	101.0535
759.764	101.0534
759.923	101.0533
760.036	101.0531
760.094	101.0530
760.127	101.0528
760.174	101.0526
760.240	101.0526
760.330	101.0525
760.432	101.0524
760.541	101.0523
760.659	101.0522
760.789	101.0519
760.940	101.0518
761.103	101.0515
761.273	101.0513
761.440	101.0512
761.618	101.0510
761.833	101.0508
762.095	101.0506
762.370	101.0504
762.639	101.0502
762.910	101.0500
763.192	101.0499
763.476	101.0497
763.754	101.0495
763.991	101.0493
764.146	101.0490
764.208	101.0488
764.231	101.0487
764.268	101.0485
764.356	101.0484
764.489	101.0483
764.640	101.0482
764.795	101.0481
764.961	101.0479
765.138	101.0478
765.321	101.0477
765.495	101.0476
765.645	101.0476
765.780	101.0475
765.910	101.0474
766.040	101.0472
766.183	101.0470
766.342	101.0467
766.513	101.0466
766.690	101.0463
766.873	101.0462
767.066	101.0460
767.269	101.0458
767.465	101.0456
767.645	101.0455
767.820	101.0452
767.995	101.0450
768.167	101.0449
768.343	101.0448
768.529	101.0447
768.717	101.0445
768.914	101.0444
769.121	101.0442
769.324	101.0441
769.504	101.0440
769.656	101.0437
769.802	101.0435
769.961	101.0433
770.126	101.0430
770.293	101.0428
770.460	101.0428
770.637	101.0428
770.820	101.0427
771.006	101.0426
771.186	101.0424
771.364	101.0423
771.532	101.0422
771.691	101.0419
771.876	101.0416
772.096	101.0413
772.302	101.0411
772.463	101.0409
772.604	101.0407
772.753	101.0407
772.911	101.0405
773.080	101.0403
773.244	101.0401
773.394	101.0398
773.550	101.0395
773.695	101.0393
773.831	101.0391
773.968	101.0389
774.110	101.0385
774.259	101.0383
774.420	101.0383
774.607	101.0382
774.838	101.0381
775.112	101.0380
775.399	101.0379
775.670	101.0378
775.909	101.0376
776.079	101.0375
776.193	101.0374
776.294	101.0372
776.394	101.0371
776.500	101.0369
776.622	101.0367
776.759	101.0365
776.910	101.0364
777.057	101.0363
777.196	101.0360
777.344	101.0359
777.491	101.0356
777.640	101.0354
777.774	101.0352
777.897	101.0351
778.019	101.0350
778.144	101.0349
778.271	101.0347
778.414	101.0346
778.572	101.0344
778.740	101.0343
778.911	101.0341
779.080	101.0339
779.251	101.0337
779.433	101.0335
779.626	101.0334
779.826	101.0332
780.020	101.0330
780.193	101.0328
780.350	101.0326
780.496	101.0324
780.621	101.0322
780.728	101.0319
780.835	101.0315
780.953	101.0313
781.098	101.0312
781.283	101.0310
781.494	101.0310
781.735	101.0308
781.993	101.0305
782.247	101.0303
782.465	101.0301
782.621	101.0300
782.747	101.0298
782.872	101.0297
783.002	101.0297
783.145	101.0296
783.302	101.0295
783.469	101.0292
783.654	101.0288
783.863	101.0285
784.088	101.0283
784.302	101.0280
784.487	101.0279
784.652	101.0278
784.812	101.0276
784.994	101.0275
785.225	101.0273
785.459	101.0271
785.669	101.0269
785.888	101.0265
786.148	101.0263
786.433	101.0262
786.712	101.0259
786.975	101.0258
787.224	101.0255
787.457	101.0252
787.670	101.0250
787.862	101.0248
788.035	101.0246
788.202	101.0243
788.368	101.0241
788.534	101.0238
788.703	101.0235
788.873	101.0233
789.012	101.0231
789.106	101.0228
789.196	101.0226
789.295	101.0224
789.404	101.0223
789.527	101.0222
789.664	101.0220
789.814	101.0218
789.961	101.0216
790.095	101.0212
790.222	101.0211
790.364	101.0209
790.523	101.0209
790.691	101.0207
790.865	101.0205
791.033	101.0201
791.171	101.0198
791.231	101.0196
791.213	101.0195
791.172	101.0192
791.137	101.0189
791.127	101.0187
791.168	101.0185
791.279	101.0183
791.477	101.0181
791.761	101.0180
792.086	101.0179
792.413	101.0177
792.730	101.0175
793.027	101.0172
793.294	101.0169
793.535	101.0167
793.768	101.0164
794.003	101.0162
794.226	101.0160
794.408	101.0158
794.547	101.0156
794.679	101.0154
794.832	101.0151
794.976	101.0149
795.087	101.0145
795.190	101.0143
795.306	101.0141
795.459	101.0138
795.643	101.0134
795.806	101.0131
795.955	101.0129
796.127	101.0127
796.349	101.0125
796.622	101.0123
796.907	101.0120
797.148	101.0118
797.327	101.0115
797.459	101.0114
797.574	101.0112
797.714	101.0111
797.919	101.0109
798.171	101.0105
798.405	101.0102
798.584	101.0100
798.728	101.0098
798.876	101.0095
799.045	101.0092
799.214	101.0090
799.387	101.0088
799.587	101.0086
799.814	101.0083
800.022	101.0080
800.163	101.0076
800.222	101.0073
800.240	101.0071
800.258	101.0069
800.296	101.0066
800.330	101.0064
800.338	101.0061
800.365	101.0059
800.451	101.0057
800.573	101.0055
800.701	101.0054
800.818	101.0052
800.910	101.0049
800.970	101.0045
801.014	101.0042
801.055	101.0038
801.110	101.0036
801.185	101.0034
801.261	101.0030
801.332	101.0028
801.387	101.0025
801.413	101.0023
801.427	101.0021
801.450	101.0018
801.480	101.0015
801.499	101.0012
801.474	101.0010
801.388	101.0008
801.258	101.0006
801.130	101.0003
801.047	101.0002
801.006	100.9999
800.980	100.9997
800.944	100.9995
800.896	100.9994
800.847	100.9991
800.803	100.9988
800.759	100.9984
800.701	100.9982
800.637	100.9979
800.584	100.9976
800.549	100.9974
800.540	100.9973
800.588	100.9972
800.676	100.9970
800.754	100.9969
800.796	100.9968
800.823	100.9966
800.844	100.9964
800.832	100.9962
800.782	100.9959
800.710	100.9955
800.638	100.9952
800.578	100.9949
800.536	100.9945
800.511	100.9943
800.497	100.9941
800.489	100.9938
800.473	100.9935
800.458	100.9932
800.468	100.9930
800.522	100.9929
800.630	100.9929
800.778	100.9927
800.946	100.9925
801.117	100.9923
801.277	100.9921
801.407	100.9919
801.495	100.9918
801.543	100.9917
801.573	100.9915
801.589	100.9913
801.583	100.9910
801.537	100.9908
801.421	100.9905
801.265	100.9902
801.123	100.9900
801.026	100.9897
800.988	100.9894
801.014	100.9891
801.092	100.9888
801.182	100.9885
801.250	100.9882
801.289	100.9879
801.317	100.9875
801.347	100.9874
801.381	100.9873
801.411	100.9872
801.409	100.9871
801.359	100.9869
801.255	100.9865
801.114	100.9862
800.975	100.9861
800.854	100.9859
800.775	100.9857
800.737	100.9855
800.724	100.9851
800.709	100.9847
800.679	100.9844
800.649	100.9842
800.625	100.9839
800.622	100.9837
800.630	100.9836
800.632	100.9833
800.625	100.9831
800.610	100.9829
800.588	100.9826
800.573	100.9823
800.583	100.9821
800.620	100.9819
800.664	100.9816
800.681	100.9813
800.648	100.9812
800.586	100.9810
800.523	100.9808
800.460	100.9806
800.397	100.9804
800.374	100.9802
800.399	100.9799
800.458	100.9797
800.525	100.9794
800.587	100.9791
800.656	100.9789
800.714	100.9788
800.743	100.9786
800.745	100.9784
800.730	100.9781
800.699	100.9778
800.660	100.9776
800.622	100.9774
800.589	100.9771
800.583	100.9769
800.623	100.9768
800.688	100.9766
800.756	100.9764
800.810	100.9761
800.815	100.9757
800.774	100.9754
800.724	100.9752
800.685	100.9750
800.664	100.9748
800.647	100.9746
800.631	100.9744
800.636	100.9744
800.663	100.9743
800.665	100.9741
800.610	100.9738
800.534	100.9736
800.482	100.9734
800.463	100.9730
800.473	100.9728
800.509	100.9725
800.559	100.9723
800.617	100.9720
800.656	100.9718
800.677	100.9716
800.678	100.9713
800.653	100.9711
800.610	100.9708
800.574	100.9706
800.559	100.9704
800.558	100.9703
800.551	100.9701
800.539	100.9699
800.531	100.9698
800.533	100.9695
800.546	100.9693
800.570	100.9690
800.601	100.9688
800.627	100.9686
800.649	100.9684
800.671	100.9683
800.684	100.9681
800.679	100.9679
800.671	100.9675
800.662	100.9672
800.627	100.9669
800.577	100.9667
800.564	100.9664
800.598	100.9661
800.652	100.9659
800.709	100.9657
800.756	100.9656
800.768	100.9654
800.725	100.9652
800.645	100.9651
800.567	100.9648
800.540	100.9646
800.563	100.9643
800.595	100.9640
800.624	100.9636
800.647	100.9633
800.666	100.9630
800.686	100.9627
800.701	100.9625
800.698	100.9622
800.678	100.9620
800.648	100.9618
800.612	100.9617
800.568	100.9617
800.516	100.9614
800.471	100.9611
800.440	100.9607
800.422	100.9603
800.411	100.9602
800.393	100.9600
800.373	100.9599
800.353	100.9599
800.336	100.9598
800.304	100.9595
800.251	100.9592
800.187	100.9588
800.133	100.9583
800.102	100.9580
800.096	100.9578
800.109	100.9576
800.138	100.9572
800.174	100.9569
800.207	100.9566
800.232	100.9564
800.245	100.9562
800.250	100.9561
800.270	100.9560
800.312	100.9559
800.357	100.9556
800.383	100.9555
800.390	100.9552
800.387	100.9549
800.382	100.9546
800.378	100.9543
800.379	100.9542
800.388	100.9541
800.393	100.9539
800.383	100.9537
800.377	100.9535
800.388	100.9532
800.410	100.9530
800.433	100.9529
800.450	100.9526
800.454	100.9522
800.427	100.9519
800.371	100.9516
800.313	100.9512
800.277	100.9511
800.256	100.9510
800.239	100.9510
800.226	100.9507
800.235	100.9505
800.281	100.9502
800.361	100.9500
800.461	100.9498
800.562	100.9495
800.649	100.9494
800.716	100.9491
800.760	100.9489
800.789	100.9486
800.813	100.9483
800.829	100.9480
800.833	100.9477
800.825	100.9474
800.810	100.9472
800.791	100.9471
800.766	100.9469
800.724	100.9466
800.660	100.9464
800.601	100.9461
800.566	100.9459
800.555	100.9456
800.555	100.9454
800.555	100.9452
800.572	100.9449
800.619	100.9447
800.684	100.9445
800.743	100.9443
800.760	100.9442
800.731	100.9440
800.670	100.9437
800.597	100.9435
800.544	100.9432
800.515	100.9430
800.504	100.9429
800.505	100.9426
800.513	100.9424
800.541	100.9423
800.592	100.9422
800.648	100.9420
800.711	100.9418
800.771	100.9414
800.808	100.9410
800.822	100.9407
800.821	100.9405
800.811	100.9404
800.788	100.9402
800.751	100.9401
800.706	100.9397
800.656	100.9394
800.599	100.9391
800.541	100.9387
800.491	100.9385
800.456	100.9383
800.433	100.9382
800.414	100.9381
800.396	100.9379
800.383	100.9376
800.384	100.9374
800.421	100.9371
800.496	100.9368
800.597	100.9366
800.691	100.9363
800.750	100.9362
800.767	100.9360
800.764	100.9360
800.783	100.9358
800.820	100.9355
800.841	100.9352
800.834	100.9350
800.820	100.9347
800.788	100.9345
800.741	100.9343
800.701	100.9340
800.684	100.9338
800.676	100.9336
800.668	100.9332
800.659	100.9329
800.662	100.9326
800.702	100.9325
800.759	100.9324
800.787	100.9322
800.798	100.9321
800.817	100.9319
800.844	100.9316
800.866	100.9313
800.875	100.9310
800.887	100.9306
800.906	100.9306
800.926	100.9304
800.952	100.9303
800.983	100.9300
801.002	100.9297
800.986	100.9294
800.927	100.9291
800.857	100.9288
800.805	100.9284
800.760	100.9282
800.704	100.9281
800.646	100.9277
800.599	100.9275
800.567	100.9272
800.557	100.9270
800.571	100.9269
800.590	100.9266
800.605	100.9264
800.595	100.9261
800.552	100.9259
800.496	100.9256
800.457	100.9253
800.438	100.9252
800.421	100.9250
800.418	100.9247
800.437	100.9244
800.475	100.9242
800.536	100.9239
800.586	100.9237
800.598	100.9234
800.607	100.9233
800.645	100.9231
800.690	100.9229
800.690	100.9227
800.644	100.9224
800.588	100.9220
800.560	100.9218
800.562	100.9216
800.570	100.9214
800.575	100.9211
800.588	100.9209
800.605	100.9206
800.630	100.9204
800.659	100.9201
800.691	100.9199
800.717	100.9197
800.728	100.9195
800.722	100.9193
800.718	100.9190
800.733	100.9189
800.746	100.9188
800.747	100.9185
800.742	100.9182
800.750	100.9179
800.775	100.9176
800.810	100.9173
800.850	100.9171
800.885	100.9170
800.897	100.9168
800.864	100.9166
800.794	100.9163
800.709	100.9160
800.636	100.9158
800.582	100.9155
800.551	100.9153
800.566	100.9151
800.624	100.9147
800.666	100.9144
800.663	100.9143
800.616	100.9141
800.590	100.9140
800.610	100.9139
800.648	100.9136
800.671	100.9133
800.669	100.9132
800.653	100.9130
800.631	100.9128
800.610	100.9125
800.588	100.9123
800.577	100.9121
800.589	100.9119
800.611	100.9116
800.638	100.9113
800.660	100.9110
800.657	100.9108
800.636	100.9105
800.607	100.9103
800.572	100.9099
800.539	100.9096
800.500	100.9094
800.444	100.9092
800.377	100.9090
800.312	100.9088
800.273	100.9087
800.264	100.9085
800.286	100.9082
800.342	100.9079
800.417	100.9077
800.463	100.9075
800.469	100.9073
800.467	100.9070
800.465	100.9069
800.465	100.9067
800.483	100.9066
800.529	100.9064
800.582	100.9061
800.628	100.9057
800.661	100.9053
800.688	100.9051
800.706	100.9049
800.723	100.9046
800.734	100.9043
800.732	100.9039
800.713	100.9036
800.669	100.9034
800.610	100.9031
800.576	100.9029
800.580	100.9027
800.602	100.9026
800.621	100.9024
800.618	100.9023
800.600	100.9021
800.586	100.9019
800.570	100.9018
800.554	100.9016
800.561	100.9014
800.587	100.9011
800.611	100.9009
800.634	100.9006
800.640	100.9004
800.637	100.9002
800.631	100.9001
800.619	100.8998
800.608	100.8996
800.589	100.8993
800.559	100.8991
800.531	100.8988
800.515	100.8985
800.519	100.8982
800.552	100.8979
800.594	100.8976
800.638	100.8974
800.677	100.8972
800.706	100.8970
800.702	100.8968
800.672	100.8965
800.641	100.8962
800.613	100.8959
800.582	100.8958
800.555	100.8956
800.542	100.8954
800.538	100.8952
800.541	100.8949
800.549	100.8947
800.563	100.8944
800.572	100.8943
800.565	100.8940
800.551	100.8936
800.553	100.8934
800.564	100.8932
800.568	100.8930
800.554	100.8929
800.523	100.8928
800.489	100.8925
800.470	100.8922
800.479	100.8920
800.513	100.8918
800.563	100.8916
800.612	100.8913
800.641	100.8911
800.635	100.8910
800.597	100.8908
800.543	100.8906
800.501	100.8904
800.482	100.8902
800.485	100.8899
800.501	100.8898
800.525	100.8895
800.558	100.8893
800.596	100.8890
800.628	100.8888
800.651	100.8885
800.654	100.8882
800.636	100.8880
800.611	100.8878
800.582	100.8875
800.568	100.8872
800.568	100.8870
800.561	100.8868
800.556	100.8866
800.558	100.8867
800.534	100.8866
800.489	100.8863
800.425	100.8860
800.345	100.8857
800.271	100.8853
800.212	100.8850
800.166	100.8848
800.133	100.8846
800.106	100.8845
800.080	100.8843
800.066	100.8841
800.077	100.8838
800.108	100.8834
800.135	100.8830
800.143	100.8828
800.142	100.8826
800.151	100.8824
800.174	100.8822
800.185	100.8820
800.180	100.8818
800.176	100.8816
800.182	100.8813
800.201	100.8812
800.231	100.8811
800.243	100.8809
800.233	100.8806
800.211	100.8804
800.202	100.8802
800.226	100.8800
800.277	100.8799
800.314	100.8797
800.314	100.8796
800.285	100.8794
800.247	100.8793
800.213	100.8790
800.177	100.8787
800.141	100.8784
800.110	100.8782
800.101	100.8779
800.118	100.8777
800.135	100.8775
800.137	100.8773
800.135	100.8771
800.141	100.8770
800.154	100.8768
800.163	100.8766
800.177	100.8764
800.211	100.8762
800.238	100.8759
800.222	100.8757
800.174	100.8755
800.121	100.8753
800.081	100.8751
800.062	100.8749
800.069	100.8746
800.106	100.8743
800.158	100.8741
800.209	100.8739
800.235	100.8737
800.234	100.8735
800.230	100.8733
800.225	100.8729
800.220	100.8728
800.225	100.8726
800.232	100.8725
800.236	100.8724
800.237	100.8723
800.238	100.8721
800.236	100.8718
800.225	100.8716
800.216	100.8714
800.200	100.8711
800.178	100.8708
800.169	100.8707
800.179	100.8706
800.195	100.8705
800.212	100.8703
800.224	100.8700
800.231	100.8697
800.246	100.8695
800.269	100.8693
800.280	100.8691
800.283	100.8688
800.286	100.8685
800.291	100.8682
800.310	100.8679
800.335	100.8677
800.340	100.8675
800.310	100.8673
800.251	100.8671
800.180	100.8670
800.097	100.8668
800.015	100.8665
799.956	100.8662
799.926	100.8660
799.922	100.8658
799.951	100.8656
800.005	100.8654
800.068	100.8652
800.138	100.8649
800.188	100.8647
800.213	100.8645
800.244	100.8642
800.291	100.8639
800.321	100.8638
800.330	100.8637
800.335	100.8635
800.334	100.8633
800.317	100.8630
800.294	100.8627
800.280	100.8625
800.268	100.8622
800.255	100.8621
800.246	100.8619
800.241	100.8617
800.239	100.8615
800.236	100.8613
800.226	100.8611
800.229	100.8608
800.245	100.8606
800.254	100.8604
800.242	100.8602
800.213	100.8601
800.186	100.8599
800.167	100.8597
800.160	100.8593
800.159	100.8590
800.154	100.8588
800.138	100.8586
800.118	100.8584
800.101	100.8582
800.068	100.8580
800.021	100.8578
799.973	100.8576
799.935	100.8574
799.921	100.8571
799.939	100.8569
799.953	100.8566
799.933	100.8564
799.889	100.8562
799.844	100.8561
799.809	100.8560
799.795	100.8558
799.809	100.8556
799.846	100.8554
799.900	100.8552
799.958	100.8551
800.024	100.8548
800.107	100.8545
800.188	100.8543
800.256	100.8540
800.309	100.8536
800.346	100.8534
800.364	100.8531
800.355	100.8530
800.307	100.8528
800.240	100.8527
800.191	100.8524
800.172	100.8522
800.178	100.8519
800.197	100.8517
800.222	100.8515
800.244	100.8513
800.253	100.8511
800.240	100.8509
800.198	100.8508
800.158	100.8505
800.149	100.8503
800.149	100.8501
800.131	100.8499
800.085	100.8497
800.009	100.8495
799.932	100.8493
799.903	100.8490
799.928	100.8488
799.980	100.8487
800.021	100.8485
800.059	100.8482
800.123	100.8479
800.196	100.8476
800.246	100.8474
800.283	100.8473
800.284	100.8472
800.235	100.8471
800.196	100.8469
800.177	100.8467
800.176	100.8465
800.188	100.8461
800.217	100.8458
800.251	100.8456
800.277	100.8454
800.301	100.8451
800.338	100.8450
800.396	100.8448
800.454	100.8446
800.501	100.8444
800.532	100.8441
800.541	100.8439
800.525	100.8437
800.504	100.8435
800.486	100.8434
800.476	100.8433
800.471	100.8430
800.471	100.8427
800.464	100.8425
800.447	100.8423
800.441	100.8421
800.455	100.8419
800.475	100.8417
800.483	100.8415
800.486	100.8414
800.510	100.8412
800.549	100.8410
800.571	100.8408
800.561	100.8405
800.532	100.8402
800.500	100.8400
800.475	100.8398
800.463	100.8395
800.466	100.8393
800.474	100.8392
800.463	100.8390
800.453	100.8388
800.466	100.8386
800.500	100.8385
800.546	100.8382
800.588	100.8380
800.614	100.8379
800.627	100.8377
800.642	100.8375
800.651	100.8372
800.650	100.8369
800.658	100.8367
800.674	100.8365
800.700	100.8363
800.727	100.8360
800.736	100.8357
800.728	100.8354
800.715	100.8354
800.707	100.8352
800.700	100.8351
800.687	100.8351
800.675	100.8350
800.664	100.8347
800.649	100.8345
800.639	100.8342
800.643	100.8339
800.657	100.8336
800.674	100.8337
800.665	100.8335
800.602	100.8332
800.508	100.8327
800.424	100.8325
800.361	100.8323
800.327	100.8319
800.332	100.8314
800.373	100.8312
800.432	100.8311
800.500	100.8311
800.562	100.8309
800.610	100.8308
800.639	100.8306
800.657	100.8304
800.665	100.8302
800.678	100.8300
800.689	100.8298
800.694	100.8294
800.696	100.8291
800.699	100.8288
800.706	100.8287
800.709	100.8285
800.707	100.8284
800.699	100.8282
800.683	100.8280
800.671	100.8279
800.670	100.8277
800.681	100.8275
800.697	100.8273
800.712	100.8271
800.727	100.8269
800.742	100.8267
800.752	100.8265
800.767	100.8263
800.801	100.8261
800.856	100.8258
800.911	100.8256
800.954	100.8253
800.977	100.8251
800.979	100.8249
800.964	100.8246
800.928	100.8244
800.854	100.8242
800.741	100.8239
800.623	100.8236
800.535	100.8234
800.499	100.8232
800.496	100.8230
800.498	100.8229
800.500	100.8227
800.490	100.8225
800.457	100.8223
800.416	100.8220
800.395	100.8217
800.395	100.8214
800.387	100.8212
800.371	100.8210
800.365	100.8208
800.367	100.8206
800.364	100.8204
800.357	100.8201
800.354	100.8198
800.368	100.8196
800.419	100.8192
800.493	100.8189
800.549	100.8187
800.578	100.8185
800.572	100.8184
800.540	100.8183
800.504	100.8181
800.474	100.8179
800.456	100.8178
800.454	100.8177
800.461	100.8175
800.466	100.8173
800.469	100.8171
800.482	100.8171
800.510	100.8170
800.542	100.8169
800.554	100.8166
800.552	100.8163
800.543	100.8160
800.525	100.8157
800.502	100.8154
800.477	100.8153
800.440	100.8150
800.412	100.8147
800.420	100.8145
800.467	100.8143
800.543	100.8141
800.617	100.8140
800.679	100.8138
800.722	100.8136
800.740	100.8133
800.757	100.8131
800.781	100.8129
800.807	100.8126
800.833	100.8125
800.857	100.8124
800.866	100.8122
800.848	100.8119
800.807	100.8118
800.759	100.8115
800.705	100.8112
800.637	100.8110
800.557	100.8107
800.487	100.8106
800.454	100.8103
800.462	100.8102
800.475	100.8100
800.473	100.8098
800.487	100.8095
800.539	100.8091
800.620	100.8090
800.695	100.8089
800.738	100.8087
800.747	100.8085
800.748	100.8082
800.763	100.8081
800.782	100.8080
800.785	100.8079
800.774	100.8077
800.765	100.8074
