Filename:	D:\Users\Thermal_Users\LeBlanc\Ag2 ink 8_9_16.tg1d

Temperature (°C)	Weight (mg)
26.207	74.9123
26.285	74.9134
26.370	74.9143
26.464	74.9151
26.565	74.9156
26.667	74.9160
26.765	74.9161
26.859	74.9160
26.946	74.9158
27.025	74.9156
27.098	74.9153
27.162	74.9151
27.220	74.9149
27.272	74.9147
27.319	74.9145
27.361	74.9143
27.398	74.9141
27.431	74.9139
27.461	74.9136
27.488	74.9134
27.513	74.9132
27.534	74.9131
27.554	74.9130
27.571	74.9128
27.587	74.9128
27.602	74.9125
27.616	74.9124
27.628	74.9123
27.639	74.9122
27.650	74.9121
27.660	74.9119
27.669	74.9118
27.677	74.9117
27.685	74.9115
27.692	74.9114
27.699	74.9112
27.705	74.9111
27.711	74.9110
27.716	74.9110
27.721	74.9109
27.726	74.9108
27.730	74.9107
27.734	74.9108
27.738	74.9109
27.742	74.9108
27.745	74.9106
27.748	74.9104
27.751	74.9103
27.754	74.9102
27.756	74.9102
27.759	74.9101
27.761	74.9101
27.763	74.9101
27.765	74.9101
27.767	74.9099
27.769	74.9099
27.771	74.9098
27.773	74.9097
27.774	74.9095
27.776	74.9094
27.777	74.9094
27.778	74.9093
27.780	74.9092
27.781	74.9093
27.785	74.9092
27.789	74.9092
27.794	74.9092
27.801	74.9093
27.810	74.9093
27.821	74.9094
27.834	74.9095
27.848	74.9097
27.863	74.9099
27.880	74.9099
27.898	74.9099
27.918	74.9099
27.938	74.9099
27.960	74.9101
27.982	74.9103
28.006	74.9103
28.029	74.9103
28.054	74.9103
28.078	74.9102
28.104	74.9102
28.130	74.9101
28.156	74.9101
28.182	74.9100
28.209	74.9099
28.236	74.9100
28.264	74.9100
28.291	74.9100
28.319	74.9100
28.348	74.9101
28.376	74.9100
28.405	74.9099
28.433	74.9099
28.461	74.9099
28.490	74.9099
28.519	74.9099
28.548	74.9099
28.577	74.9100
28.607	74.9100
28.636	74.9100
28.666	74.9099
28.696	74.9098
28.736	74.9097
28.887	74.9102
29.309	74.9144
29.940	74.9201
30.654	74.9249
31.377	74.9279
32.073	74.9301
32.724	74.9316
33.320	74.9321
33.857	74.9317
34.336	74.9309
19.680	74.9297
14.033	74.9285
12.778	74.9277
13.582	74.9268
15.282	74.9257
17.294	74.9258
19.348	74.9259
21.320	74.9399
23.157	75.0073
24.845	75.0754
26.401	75.1253
27.838	75.1576
29.167	75.1772
30.403	75.1885
31.553	75.1947
32.629	75.1980
33.637	75.1995
34.580	75.2002
35.463	75.2001
36.292	75.1996
37.075	75.1989
37.812	75.1982
38.512	75.1975
39.177	75.1967
39.809	75.1958
40.414	75.1950
40.994	75.1941
41.540	75.1933
42.065	75.1923
42.573	75.1912
43.063	75.1901
43.534	75.1890
43.984	75.1879
44.416	75.1865
44.834	75.1853
45.235	75.1840
45.622	75.1828
45.999	75.1817
46.364	75.1804
46.718	75.1792
47.063	75.1779
47.398	75.1767
47.724	75.1755
48.041	75.1742
48.345	75.1730
48.640	75.1717
48.928	75.1705
49.215	75.1694
49.495	75.1684
49.770	75.1672
50.045	75.1660
50.312	75.1646
50.576	75.1634
50.832	75.1622
51.085	75.1611
51.334	75.1600
51.578	75.1589
51.817	75.1578
52.054	75.1567
52.288	75.1556
52.518	75.1544
52.746	75.1534
52.967	75.1522
53.184	75.1510
53.398	75.1499
53.611	75.1486
53.822	75.1475
54.030	75.1463
54.239	75.1453
54.445	75.1445
54.650	75.1436
54.854	75.1425
55.055	75.1413
55.253	75.1401
55.448	75.1389
55.645	75.1378
55.850	75.1368
56.040	75.1357
56.223	75.1348
56.418	75.1337
56.619	75.1326
56.823	75.1314
57.026	75.1302
57.228	75.1289
57.431	75.1278
57.634	75.1266
57.834	75.1254
58.034	75.1243
58.231	75.1233
58.427	75.1222
58.621	75.1211
58.817	75.1200
59.007	75.1189
59.193	75.1178
59.382	75.1167
59.568	75.1155
59.757	75.1143
59.951	75.1131
60.141	75.1118
60.329	75.1105
60.514	75.1091
60.697	75.1078
60.882	75.1066
61.066	75.1054
61.248	75.1041
61.432	75.1029
61.616	75.1017
61.800	75.1006
61.983	75.0995
62.164	75.0982
62.347	75.0969
62.529	75.0956
62.711	75.0943
62.892	75.0930
63.074	75.0917
63.253	75.0904
63.434	75.0892
63.619	75.0879
63.803	75.0866
63.979	75.0852
64.157	75.0840
64.334	75.0827
64.511	75.0815
64.687	75.0804
64.863	75.0790
65.042	75.0774
65.224	75.0757
65.404	75.0742
65.586	75.0729
65.765	75.0714
65.948	75.0701
66.131	75.0686
66.312	75.0672
66.491	75.0658
66.667	75.0644
66.846	75.0629
67.027	75.0616
67.206	75.0600
67.387	75.0585
67.570	75.0569
67.752	75.0554
67.933	75.0540
68.111	75.0525
68.285	75.0509
68.461	75.0493
68.635	75.0476
68.809	75.0460
68.984	75.0446
69.162	75.0431
69.341	75.0414
69.527	75.0397
69.702	75.0382
69.873	75.0368
70.046	75.0353
70.223	75.0336
70.403	75.0319
70.586	75.0302
70.766	75.0286
70.948	75.0270
71.130	75.0253
71.311	75.0237
71.492	75.0221
71.675	75.0206
71.850	75.0188
72.030	75.0172
72.210	75.0154
72.387	75.0137
72.566	75.0119
72.744	75.0102
72.922	75.0086
73.100	75.0068
73.277	75.0050
73.456	75.0033
73.634	75.0015
73.813	74.9997
73.991	74.9978
74.169	74.9958
74.348	74.9939
74.527	74.9921
74.704	74.9904
74.880	74.9886
75.058	74.9868
75.235	74.9850
75.411	74.9831
75.587	74.9812
75.764	74.9793
75.941	74.9773
76.115	74.9753
76.290	74.9732
76.464	74.9713
76.637	74.9694
76.815	74.9677
76.995	74.9659
77.172	74.9639
77.347	74.9618
77.526	74.9599
77.701	74.9580
77.878	74.9560
78.055	74.9540
78.229	74.9520
78.406	74.9500
78.581	74.9482
78.754	74.9465
78.929	74.9448
79.105	74.9428
79.279	74.9408
79.452	74.9387
79.627	74.9367
79.803	74.9346
79.980	74.9324
80.156	74.9301
80.331	74.9280
80.505	74.9258
80.676	74.9236
80.870	74.9213
81.045	74.9192
81.216	74.9170
81.388	74.9149
81.564	74.9130
81.747	74.9108
81.927	74.9085
82.113	74.9065
82.288	74.9043
82.451	74.9022
82.613	74.9001
82.783	74.8981
82.951	74.8960
83.118	74.8938
83.292	74.8915
83.473	74.8892
83.657	74.8870
83.836	74.8849
84.005	74.8828
84.175	74.8806
84.342	74.8784
84.507	74.8762
84.674	74.8737
84.841	74.8713
85.011	74.8691
85.183	74.8670
85.357	74.8648
85.532	74.8626
85.706	74.8604
85.884	74.8581
86.063	74.8557
86.246	74.8532
86.433	74.8508
86.615	74.8485
86.786	74.8462
86.961	74.8438
87.137	74.8413
87.316	74.8389
87.501	74.8366
87.684	74.8342
87.862	74.8319
88.047	74.8296
88.219	74.8273
88.396	74.8250
88.571	74.8227
88.750	74.8203
88.933	74.8180
89.109	74.8155
89.272	74.8130
89.453	74.8105
89.636	74.8080
89.816	74.8054
89.991	74.8030
90.161	74.8006
90.344	74.7981
90.509	74.7957
90.672	74.7932
90.838	74.7908
91.003	74.7883
91.177	74.7858
91.364	74.7832
91.531	74.7806
91.710	74.7782
91.895	74.7757
92.066	74.7733
92.249	74.7707
92.430	74.7683
92.608	74.7657
92.787	74.7634
92.966	74.7610
93.145	74.7583
93.323	74.7556
93.502	74.7529
93.678	74.7503
93.856	74.7478
94.030	74.7453
94.205	74.7427
94.380	74.7401
94.557	74.7375
94.734	74.7348
94.907	74.7322
95.075	74.7294
95.243	74.7266
95.413	74.7237
95.582	74.7210
95.762	74.7183
95.944	74.7156
96.122	74.7130
96.299	74.7104
96.476	74.7077
96.653	74.7050
96.828	74.7024
97.005	74.6996
97.184	74.6968
97.362	74.6939
97.539	74.6910
97.714	74.6883
97.890	74.6856
98.063	74.6830
98.229	74.6804
98.394	74.6775
98.562	74.6747
98.733	74.6720
98.902	74.6692
99.071	74.6663
99.239	74.6636
99.410	74.6608
99.582	74.6580
99.751	74.6550
99.922	74.6520
100.101	74.6492
100.288	74.6464
100.475	74.6435
100.661	74.6406
100.841	74.6377
101.018	74.6348
101.196	74.6320
101.372	74.6291
101.544	74.6264
101.711	74.6235
101.879	74.6206
102.049	74.6176
102.223	74.6148
102.396	74.6118
102.572	74.6087
102.747	74.6058
102.925	74.6028
103.099	74.5999
103.277	74.5971
103.456	74.5941
103.632	74.5912
103.808	74.5883
103.978	74.5853
104.152	74.5823
104.325	74.5793
104.497	74.5763
104.681	74.5734
104.866	74.5704
105.048	74.5673
105.224	74.5642
105.390	74.5611
105.577	74.5580
105.760	74.5551
105.940	74.5520
106.117	74.5489
106.293	74.5459
106.470	74.5429
106.648	74.5400
106.822	74.5370
106.995	74.5339
107.172	74.5308
107.362	74.5276
107.546	74.5244
107.728	74.5212
107.911	74.5180
108.093	74.5147
108.268	74.5114
108.443	74.5081
108.615	74.5049
108.785	74.5018
108.958	74.4988
109.135	74.4958
109.319	74.4928
109.498	74.4896
109.669	74.4865
109.835	74.4833
110.005	74.4801
110.180	74.4768
110.351	74.4735
110.531	74.4702
110.719	74.4670
110.904	74.4638
111.083	74.4605
111.260	74.4573
111.436	74.4540
111.606	74.4506
111.771	74.4472
111.945	74.4439
112.119	74.4407
112.283	74.4375
112.447	74.4343
112.610	74.4311
112.770	74.4279
112.933	74.4246
113.099	74.4212
113.276	74.4178
113.455	74.4145
113.631	74.4112
113.811	74.4079
113.988	74.4046
114.155	74.4011
114.326	74.3977
114.502	74.3943
114.677	74.3910
114.845	74.3877
115.017	74.3843
115.188	74.3809
115.360	74.3776
115.536	74.3743
115.712	74.3708
115.885	74.3675
116.067	74.3640
116.248	74.3606
116.426	74.3571
116.597	74.3535
116.760	74.3500
116.929	74.3466
117.099	74.3432
117.271	74.3397
117.445	74.3362
117.623	74.3327
117.807	74.3291
117.986	74.3256
118.166	74.3221
118.343	74.3186
118.520	74.3151
118.693	74.3116
118.868	74.3080
119.045	74.3043
119.228	74.3008
119.410	74.2972
119.589	74.2936
119.766	74.2901
119.938	74.2866
120.107	74.2829
120.282	74.2792
120.457	74.2756
120.631	74.2719
120.806	74.2681
120.984	74.2644
121.157	74.2606
121.334	74.2569
121.514	74.2534
121.694	74.2499
121.870	74.2462
122.051	74.2424
122.234	74.2384
122.413	74.2345
122.590	74.2308
122.767	74.2271
122.945	74.2234
123.121	74.2196
123.297	74.2158
123.471	74.2120
123.647	74.2081
123.822	74.2044
123.993	74.2005
124.161	74.1966
124.333	74.1928
124.499	74.1891
124.668	74.1853
124.834	74.1814
124.998	74.1777
125.158	74.1739
125.327	74.1700
125.493	74.1659
125.661	74.1618
125.832	74.1578
126.001	74.1538
126.175	74.1498
126.345	74.1458
126.517	74.1418
126.691	74.1377
126.864	74.1336
127.037	74.1295
127.204	74.1254
127.380	74.1215
127.558	74.1176
127.735	74.1136
127.916	74.1096
128.094	74.1055
128.278	74.1014
128.459	74.0973
128.635	74.0930
128.813	74.0888
128.986	74.0847
129.157	74.0806
129.331	74.0766
129.504	74.0725
129.675	74.0685
129.846	74.0644
130.017	74.0602
130.187	74.0560
130.354	74.0518
130.523	74.0475
130.690	74.0434
130.860	74.0392
131.029	74.0350
131.201	74.0308
131.368	74.0266
131.540	74.0225
131.715	74.0182
131.893	74.0138
132.075	74.0095
132.255	74.0053
132.434	74.0009
132.611	73.9967
132.786	73.9924
132.963	73.9881
133.137	73.9837
133.309	73.9793
133.479	73.9747
133.649	73.9702
133.820	73.9658
133.990	73.9615
134.161	73.9571
134.326	73.9528
134.495	73.9485
134.664	73.9441
134.833	73.9397
135.005	73.9354
135.180	73.9311
135.358	73.9267
135.533	73.9222
135.708	73.9176
135.884	73.9130
136.065	73.9086
136.245	73.9041
136.424	73.8997
136.603	73.8954
136.783	73.8909
136.961	73.8864
137.135	73.8818
137.314	73.8771
137.489	73.8724
137.665	73.8678
137.847	73.8633
138.023	73.8588
138.198	73.8543
138.372	73.8498
138.546	73.8452
138.719	73.8406
138.887	73.8360
139.062	73.8314
139.236	73.8268
139.411	73.8221
139.586	73.8176
139.760	73.8130
139.932	73.8083
140.100	73.8036
140.269	73.7990
140.433	73.7943
140.597	73.7896
140.759	73.7849
140.921	73.7802
141.081	73.7755
141.249	73.7709
141.424	73.7663
141.601	73.7617
141.779	73.7570
141.957	73.7522
142.138	73.7473
142.313	73.7425
142.492	73.7379
142.673	73.7332
142.851	73.7285
143.026	73.7237
143.204	73.7189
143.384	73.7141
143.563	73.7093
143.738	73.7045
143.913	73.6997
144.087	73.6949
144.261	73.6901
144.433	73.6853
144.606	73.6805
144.778	73.6757
144.951	73.6710
145.124	73.6663
145.298	73.6614
145.472	73.6566
145.649	73.6518
145.824	73.6470
145.995	73.6422
146.169	73.6374
146.338	73.6326
146.512	73.6277
146.686	73.6228
146.854	73.6180
147.018	73.6133
147.185	73.6085
147.347	73.6037
147.510	73.5989
147.671	73.5941
147.832	73.5890
147.994	73.5840
148.161	73.5790
148.324	73.5740
148.488	73.5691
148.650	73.5643
148.823	73.5594
149.000	73.5544
149.181	73.5496
149.362	73.5448
149.546	73.5400
149.725	73.5352
149.903	73.5302
150.082	73.5252
150.259	73.5203
150.434	73.5154
150.614	73.5104
150.791	73.5056
150.971	73.5007
151.151	73.4956
151.327	73.4906
151.506	73.4857
151.691	73.4807
151.867	73.4758
152.036	73.4709
152.211	73.4659
152.385	73.4610
152.556	73.4561
152.729	73.4510
152.903	73.4460
153.078	73.4410
153.248	73.4360
153.420	73.4310
153.596	73.4260
153.769	73.4210
153.940	73.4160
154.115	73.4111
154.286	73.4062
154.465	73.4016
154.646	73.3966
154.825	73.3916
155.001	73.3866
155.174	73.3815
155.346	73.3764
155.516	73.3712
155.688	73.3662
155.865	73.3612
156.039	73.3563
156.217	73.3513
156.398	73.3463
156.575	73.3414
156.754	73.3364
156.931	73.3314
157.108	73.3266
157.285	73.3217
157.460	73.3167
157.633	73.3116
157.806	73.3065
157.972	73.3015
158.139	73.2965
158.304	73.2915
158.473	73.2863
158.639	73.2813
158.804	73.2763
158.973	73.2714
159.141	73.2663
159.312	73.2613
159.484	73.2563
159.660	73.2514
159.831	73.2464
160.004	73.2416
160.177	73.2366
160.353	73.2315
160.529	73.2265
160.706	73.2216
160.881	73.2166
161.057	73.2117
161.233	73.2068
161.410	73.2018
161.589	73.1969
161.767	73.1918
161.948	73.1868
162.128	73.1819
162.306	73.1770
162.482	73.1722
162.657	73.1674
162.834	73.1623
163.004	73.1573
163.173	73.1522
163.341	73.1472
163.509	73.1423
163.684	73.1373
163.860	73.1323
164.031	73.1274
164.202	73.1223
164.377	73.1174
164.551	73.1126
164.727	73.1078
164.898	73.1029
165.073	73.0979
165.246	73.0930
165.421	73.0881
165.595	73.0832
165.772	73.0783
165.953	73.0735
166.131	73.0687
166.304	73.0637
166.477	73.0587
166.656	73.0537
166.838	73.0488
167.019	73.0438
167.200	73.0390
167.382	73.0341
167.560	73.0292
167.737	73.0243
167.913	73.0195
168.086	73.0147
168.255	73.0100
168.426	73.0052
168.595	73.0003
168.763	72.9954
168.929	72.9905
169.095	72.9857
169.257	72.9809
169.418	72.9761
169.576	72.9715
169.735	72.9669
169.895	72.9620
170.052	72.9572
170.212	72.9524
170.374	72.9476
170.534	72.9428
170.693	72.9380
170.854	72.9332
171.015	72.9285
171.176	72.9238
171.337	72.9191
171.499	72.9142
171.660	72.9094
171.822	72.9048
171.987	72.9001
172.151	72.8953
172.315	72.8907
172.484	72.8860
172.650	72.8814
172.815	72.8767
172.978	72.8720
173.140	72.8673
173.299	72.8626
173.455	72.8580
173.611	72.8534
173.764	72.8488
173.915	72.8443
174.065	72.8397
174.215	72.8351
174.367	72.8305
174.516	72.8259
174.667	72.8215
174.816	72.8170
174.971	72.8126
175.122	72.8081
175.273	72.8036
175.430	72.7990
175.584	72.7944
175.739	72.7898
175.895	72.7853
176.050	72.7810
176.206	72.7766
176.360	72.7721
176.516	72.7676
176.680	72.7631
176.841	72.7587
177.001	72.7542
177.156	72.7499
177.319	72.7456
177.483	72.7412
177.639	72.7368
177.800	72.7324
177.960	72.7281
178.118	72.7237
178.271	72.7194
178.423	72.7150
178.579	72.7108
178.735	72.7065
178.886	72.7022
179.041	72.6979
179.201	72.6935
179.359	72.6891
179.520	72.6847
179.680	72.6805
179.840	72.6763
179.998	72.6721
180.155	72.6680
180.308	72.6638
180.460	72.6596
180.613	72.6553
180.763	72.6511
180.914	72.6469
181.068	72.6429
181.226	72.6387
181.379	72.6346
181.531	72.6304
181.686	72.6263
181.845	72.6221
182.003	72.6181
182.159	72.6142
182.318	72.6101
182.476	72.6061
182.634	72.6020
182.787	72.5978
182.935	72.5938
183.083	72.5896
183.234	72.5855
183.384	72.5814
183.532	72.5774
183.680	72.5735
183.828	72.5696
183.979	72.5657
184.130	72.5617
184.281	72.5577
184.435	72.5538
184.590	72.5498
184.746	72.5457
184.903	72.5418
185.061	72.5380
185.219	72.5343
185.375	72.5304
185.531	72.5265
185.686	72.5226
185.842	72.5187
185.997	72.5148
186.152	72.5111
186.306	72.5074
186.460	72.5037
186.618	72.5000
186.777	72.4964
186.937	72.4927
187.098	72.4889
187.258	72.4851
187.416	72.4813
187.574	72.4775
187.732	72.4734
187.889	72.4696
188.045	72.4659
188.201	72.4622
188.355	72.4586
188.508	72.4549
188.664	72.4514
188.816	72.4475
188.971	72.4439
189.123	72.4402
189.276	72.4364
189.432	72.4327
189.586	72.4290
189.741	72.4254
189.896	72.4218
190.048	72.4182
190.204	72.4146
190.356	72.4111
190.508	72.4075
190.660	72.4039
190.811	72.4002
190.964	72.3966
191.119	72.3931
191.275	72.3896
191.433	72.3860
191.588	72.3825
191.750	72.3790
191.913	72.3756
192.078	72.3722
192.246	72.3688
192.418	72.3653
192.590	72.3618
192.760	72.3582
192.924	72.3547
193.087	72.3512
193.247	72.3478
193.409	72.3443
193.569	72.3409
193.733	72.3375
193.894	72.3341
194.050	72.3307
194.206	72.3272
194.365	72.3238
194.524	72.3204
194.682	72.3169
194.839	72.3135
194.996	72.3100
195.153	72.3066
195.316	72.3033
195.481	72.3000
195.648	72.2965
195.816	72.2932
195.984	72.2898
196.150	72.2865
196.315	72.2832
196.479	72.2798
196.638	72.2764
196.797	72.2732
196.954	72.2699
197.109	72.2665
197.262	72.2631
197.419	72.2596
197.575	72.2562
197.732	72.2529
197.890	72.2496
198.046	72.2463
198.203	72.2430
198.360	72.2399
198.519	72.2366
198.678	72.2333
198.837	72.2302
199.003	72.2269
199.167	72.2236
199.336	72.2202
199.505	72.2171
199.676	72.2140
199.845	72.2107
200.013	72.2075
200.180	72.2044
200.348	72.2010
200.511	72.1977
200.678	72.1945
200.842	72.1912
201.003	72.1879
201.165	72.1846
201.324	72.1814
201.480	72.1782
201.638	72.1749
201.798	72.1717
201.961	72.1685
202.122	72.1653
202.286	72.1622
202.450	72.1590
202.616	72.1558
202.780	72.1527
202.942	72.1495
203.108	72.1462
203.272	72.1430
203.435	72.1398
203.598	72.1367
203.758	72.1336
203.920	72.1305
204.080	72.1272
204.238	72.1241
204.396	72.1209
204.555	72.1176
204.711	72.1143
204.867	72.1109
205.026	72.1077
205.189	72.1044
205.348	72.1015
205.506	72.0983
205.663	72.0952
205.822	72.0921
205.981	72.0889
206.139	72.0858
206.295	72.0825
206.453	72.0793
206.613	72.0762
206.768	72.0731
206.922	72.0699
207.078	72.0667
207.236	72.0633
207.396	72.0598
207.555	72.0565
207.718	72.0532
207.881	72.0501
208.043	72.0467
208.204	72.0433
208.365	72.0400
208.525	72.0367
208.685	72.0336
208.844	72.0303
209.002	72.0271
209.158	72.0238
209.315	72.0206
209.476	72.0173
209.638	72.0141
209.803	72.0108
209.964	72.0076
210.124	72.0043
210.279	72.0011
210.433	71.9978
210.589	71.9947
210.748	71.9917
210.908	71.9886
211.069	71.9857
211.234	71.9828
211.397	71.9800
211.564	71.9770
211.732	71.9741
211.898	71.9714
212.062	71.9688
212.224	71.9661
212.379	71.9634
212.537	71.9607
212.698	71.9579
212.862	71.9551
213.025	71.9523
213.190	71.9495
213.358	71.9466
213.522	71.9436
213.687	71.9406
213.848	71.9374
214.006	71.9343
214.163	71.9313
214.321	71.9282
214.482	71.9251
214.640	71.9220
214.802	71.9189
214.964	71.9158
215.128	71.9127
215.291	71.9097
215.455	71.9066
215.615	71.9035
215.776	71.9004
215.938	71.8973
216.101	71.8942
216.264	71.8912
216.425	71.8881
216.588	71.8850
216.752	71.8820
216.912	71.8788
217.072	71.8757
217.234	71.8726
217.396	71.8696
217.557	71.8665
217.719	71.8635
217.880	71.8603
218.042	71.8573
218.203	71.8541
218.363	71.8511
218.522	71.8480
218.682	71.8449
218.842	71.8417
219.002	71.8386
219.163	71.8355
219.324	71.8324
219.486	71.8293
219.646	71.8262
219.806	71.8232
219.966	71.8201
220.125	71.8171
220.286	71.8139
220.445	71.8109
220.605	71.8078
220.766	71.8047
220.920	71.8016
221.080	71.7985
221.240	71.7955
221.397	71.7924
221.549	71.7893
221.701	71.7863
221.852	71.7832
222.003	71.7800
222.152	71.7769
222.299	71.7738
222.448	71.7708
222.597	71.7677
222.746	71.7645
222.897	71.7614
223.051	71.7584
223.208	71.7553
223.369	71.7522
223.529	71.7490
223.688	71.7459
223.844	71.7427
223.997	71.7397
224.153	71.7366
224.318	71.7335
224.485	71.7305
224.655	71.7274
224.825	71.7244
224.995	71.7213
225.162	71.7180
225.322	71.7149
225.481	71.7118
225.639	71.7087
225.797	71.7056
225.951	71.7026
226.105	71.6994
226.259	71.6961
226.413	71.6930
226.570	71.6900
226.726	71.6870
226.881	71.6839
227.034	71.6809
227.184	71.6778
227.338	71.6747
227.496	71.6716
227.655	71.6685
227.814	71.6654
227.972	71.6623
228.128	71.6592
228.286	71.6560
228.449	71.6529
228.612	71.6497
228.781	71.6466
228.945	71.6435
229.107	71.6404
229.266	71.6374
229.424	71.6344
229.576	71.6313
229.727	71.6281
229.881	71.6249
230.037	71.6216
230.195	71.6186
230.351	71.6158
230.513	71.6128
230.676	71.6097
230.838	71.6066
230.998	71.6035
231.159	71.6003
231.322	71.5972
231.483	71.5941
231.644	71.5911
231.803	71.5879
231.963	71.5849
232.119	71.5818
232.269	71.5786
232.419	71.5754
232.570	71.5723
232.719	71.5692
232.868	71.5661
233.017	71.5630
233.168	71.5599
233.320	71.5565
233.469	71.5536
233.619	71.5505
233.770	71.5473
233.924	71.5443
234.075	71.5411
234.229	71.5382
234.387	71.5351
234.548	71.5321
234.716	71.5291
234.882	71.5260
235.045	71.5229
235.203	71.5198
235.358	71.5167
235.510	71.5136
235.660	71.5106
235.807	71.5075
235.954	71.5043
236.107	71.5011
236.259	71.4980
236.411	71.4948
236.563	71.4917
236.717	71.4886
236.877	71.4856
237.034	71.4826
237.192	71.4795
237.346	71.4766
237.496	71.4737
237.644	71.4706
237.790	71.4675
237.944	71.4645
238.095	71.4615
238.251	71.4584
238.409	71.4553
238.567	71.4523
238.721	71.4493
238.876	71.4461
239.034	71.4430
239.191	71.4399
239.351	71.4369
239.509	71.4338
239.665	71.4308
239.824	71.4277
239.988	71.4248
240.149	71.4218
240.305	71.4187
240.458	71.4155
240.611	71.4125
240.763	71.4094
240.911	71.4064
241.058	71.4033
241.205	71.4002
241.353	71.3971
241.502	71.3939
241.650	71.3907
241.797	71.3877
241.948	71.3848
242.103	71.3818
242.255	71.3789
242.412	71.3759
242.569	71.3729
242.725	71.3698
242.880	71.3668
243.033	71.3637
243.186	71.3607
243.339	71.3577
243.490	71.3546
243.644	71.3514
243.798	71.3484
243.950	71.3453
244.109	71.3422
244.265	71.3391
244.420	71.3361
244.577	71.3331
244.737	71.3301
244.894	71.3270
245.052	71.3239
245.210	71.3208
245.372	71.3176
245.537	71.3146
245.700	71.3116
245.862	71.3086
246.020	71.3055
246.176	71.3024
246.330	71.2992
246.479	71.2961
246.624	71.2930
246.769	71.2898
246.912	71.2865
247.056	71.2834
247.199	71.2803
247.337	71.2773
247.474	71.2745
247.610	71.2716
247.757	71.2685
247.907	71.2655
248.063	71.2626
248.222	71.2598
248.374	71.2569
248.525	71.2541
248.681	71.2512
248.827	71.2484
248.978	71.2455
249.138	71.2428
249.297	71.2401
249.461	71.2372
249.622	71.2343
249.779	71.2315
249.928	71.2288
250.077	71.2261
250.227	71.2233
250.377	71.2205
250.530	71.2176
250.681	71.2149
250.830	71.2121
250.981	71.2092
251.132	71.2062
251.285	71.2032
251.436	71.2002
251.593	71.1973
251.751	71.1944
251.908	71.1916
252.065	71.1889
252.220	71.1860
252.374	71.1832
252.528	71.1803
252.687	71.1775
252.847	71.1746
253.005	71.1717
253.163	71.1689
253.319	71.1660
253.472	71.1634
253.622	71.1604
253.776	71.1575
253.927	71.1546
254.074	71.1517
254.215	71.1489
254.358	71.1461
254.499	71.1433
254.641	71.1404
254.784	71.1374
254.928	71.1346
255.072	71.1317
255.222	71.1289
255.369	71.1261
255.518	71.1232
255.670	71.1204
255.824	71.1177
255.977	71.1149
256.132	71.1121
256.287	71.1093
256.441	71.1065
256.596	71.1037
256.748	71.1010
256.900	71.0983
257.052	71.0957
257.207	71.0932
257.360	71.0911
257.512	71.0893
257.664	71.0872
257.814	71.0850
257.965	71.0826
258.112	71.0802
258.260	71.0779
258.407	71.0754
258.554	71.0728
258.702	71.0701
258.850	71.0671
259.000	71.0643
259.155	71.0614
259.310	71.0587
259.464	71.0561
259.614	71.0535
259.761	71.0510
259.903	71.0485
260.047	71.0460
260.194	71.0433
260.341	71.0408
260.491	71.0383
260.645	71.0359
260.802	71.0335
260.960	71.0311
261.121	71.0284
261.278	71.0256
261.427	71.0229
261.579	71.0202
261.727	71.0175
261.874	71.0150
262.021	71.0124
262.172	71.0098
262.325	71.0072
262.480	71.0045
262.636	71.0019
262.792	70.9995
262.948	70.9971
263.106	70.9947
263.264	70.9923
263.422	70.9898
263.581	70.9873
263.738	70.9848
263.895	70.9823
264.049	70.9797
264.206	70.9771
264.359	70.9745
264.515	70.9719
264.667	70.9695
264.820	70.9670
264.977	70.9647
265.134	70.9621
265.295	70.9595
265.452	70.9570
265.605	70.9545
265.759	70.9521
265.909	70.9497
266.053	70.9472
266.196	70.9448
266.338	70.9423
266.479	70.9399
266.618	70.9375
266.761	70.9349
266.903	70.9324
267.044	70.9301
267.186	70.9277
267.330	70.9253
267.476	70.9230
267.618	70.9206
267.759	70.9182
267.900	70.9158
268.042	70.9134
268.183	70.9111
268.325	70.9088
268.471	70.9065
268.616	70.9041
268.761	70.9017
268.907	70.8994
269.054	70.8972
269.205	70.8949
269.355	70.8926
269.502	70.8901
269.650	70.8878
269.799	70.8856
269.946	70.8832
270.099	70.8808
270.250	70.8785
270.399	70.8762
270.546	70.8739
270.693	70.8716
270.837	70.8693
270.985	70.8670
271.136	70.8647
271.291	70.8624
271.448	70.8602
271.611	70.8580
271.771	70.8558
271.929	70.8536
272.081	70.8514
272.229	70.8491
272.382	70.8468
272.534	70.8445
272.686	70.8424
272.844	70.8402
273.001	70.8382
273.154	70.8360
273.309	70.8339
273.465	70.8315
273.619	70.8293
273.772	70.8270
273.930	70.8249
274.087	70.8227
274.243	70.8206
274.401	70.8184
274.555	70.8161
274.710	70.8138
274.862	70.8117
275.010	70.8095
275.154	70.8073
275.299	70.8052
275.443	70.8030
275.587	70.8009
275.732	70.7990
275.879	70.7970
276.026	70.7948
276.175	70.7927
276.322	70.7905
276.470	70.7883
276.618	70.7862
276.775	70.7842
276.930	70.7821
277.084	70.7800
277.241	70.7780
277.396	70.7761
277.555	70.7740
277.713	70.7720
277.871	70.7701
278.024	70.7680
278.178	70.7659
278.326	70.7638
278.475	70.7617
278.623	70.7596
278.769	70.7575
278.915	70.7555
279.058	70.7536
279.197	70.7517
279.336	70.7495
279.477	70.7475
279.618	70.7454
279.762	70.7434
279.910	70.7415
280.055	70.7396
280.199	70.7376
280.344	70.7356
280.487	70.7335
280.631	70.7314
280.773	70.7295
280.919	70.7277
281.067	70.7257
281.222	70.7237
281.377	70.7217
281.535	70.7197
281.689	70.7179
281.841	70.7160
281.999	70.7141
282.156	70.7122
282.316	70.7102
282.476	70.7082
282.635	70.7062
282.795	70.7046
282.951	70.7027
283.109	70.7008
283.263	70.6988
283.419	70.6968
283.577	70.6949
283.727	70.6931
283.865	70.6913
284.001	70.6895
284.137	70.6877
284.274	70.6858
284.414	70.6841
284.560	70.6823
284.703	70.6805
284.849	70.6786
284.998	70.6768
285.146	70.6749
285.297	70.6731
285.449	70.6714
285.598	70.6697
285.744	70.6679
285.895	70.6661
286.038	70.6643
286.185	70.6626
286.331	70.6608
286.478	70.6590
286.625	70.6572
286.774	70.6556
286.921	70.6539
287.068	70.6521
287.214	70.6504
287.360	70.6487
287.514	70.6470
287.670	70.6453
287.826	70.6437
287.984	70.6420
288.143	70.6402
288.298	70.6385
288.450	70.6368
288.605	70.6352
288.758	70.6336
288.906	70.6320
289.057	70.6304
289.206	70.6287
289.358	70.6270
289.511	70.6254
289.663	70.6242
289.814	70.6229
289.967	70.6214
290.123	70.6197
290.275	70.6179
290.427	70.6161
290.579	70.6144
290.734	70.6129
290.888	70.6115
291.043	70.6100
291.197	70.6084
291.351	70.6069
291.504	70.6054
291.656	70.6038
291.807	70.6022
291.956	70.6007
292.104	70.5990
292.254	70.5974
292.405	70.5960
292.555	70.5944
292.704	70.5928
292.855	70.5913
293.004	70.5899
293.150	70.5886
293.296	70.5872
293.443	70.5857
293.595	70.5843
293.745	70.5829
293.896	70.5815
294.051	70.5802
294.208	70.5790
294.361	70.5776
294.518	70.5761
294.671	70.5746
294.825	70.5729
294.977	70.5714
295.128	70.5700
295.281	70.5685
295.433	70.5671
295.585	70.5657
295.742	70.5644
295.899	70.5632
296.059	70.5621
296.216	70.5610
296.372	70.5599
296.528	70.5587
296.687	70.5574
296.842	70.5561
297.001	70.5549
297.162	70.5537
297.327	70.5524
297.495	70.5510
297.664	70.5497
297.832	70.5484
297.993	70.5471
298.150	70.5457
298.304	70.5444
298.456	70.5430
298.606	70.5416
298.755	70.5403
298.902	70.5390
299.051	70.5376
299.202	70.5363
299.348	70.5350
299.496	70.5338
299.645	70.5326
299.794	70.5314
299.946	70.5302
300.095	70.5288
300.243	70.5275
300.389	70.5262
300.533	70.5249
300.682	70.5237
300.835	70.5224
300.991	70.5212
301.152	70.5200
301.316	70.5188
301.478	70.5176
301.639	70.5165
301.799	70.5153
301.957	70.5142
302.112	70.5129
302.271	70.5117
302.431	70.5106
302.590	70.5094
302.745	70.5081
302.898	70.5069
303.047	70.5057
303.197	70.5045
303.350	70.5033
303.499	70.5022
303.645	70.5011
303.794	70.5000
303.941	70.4988
304.085	70.4978
304.229	70.4967
304.372	70.4956
304.515	70.4944
304.656	70.4933
304.801	70.4921
304.946	70.4909
305.094	70.4899
305.250	70.4889
305.410	70.4877
305.575	70.4866
305.741	70.4855
305.906	70.4844
306.071	70.4832
306.234	70.4821
306.399	70.4810
306.560	70.4800
306.717	70.4789
306.871	70.4779
307.026	70.4768
307.177	70.4758
307.326	70.4747
307.474	70.4735
307.622	70.4724
307.778	70.4713
307.936	70.4702
308.097	70.4692
308.259	70.4682
308.419	70.4672
308.577	70.4662
308.730	70.4650
308.879	70.4639
309.029	70.4628
309.175	70.4618
309.320	70.4608
309.463	70.4598
309.603	70.4588
309.737	70.4578
309.870	70.4568
309.998	70.4559
310.128	70.4550
310.256	70.4543
310.387	70.4533
310.521	70.4522
310.660	70.4511
310.804	70.4501
310.948	70.4491
311.101	70.4480
311.256	70.4469
311.413	70.4459
311.571	70.4447
311.730	70.4437
311.890	70.4427
312.051	70.4417
312.210	70.4407
312.368	70.4398
312.523	70.4389
312.684	70.4380
312.844	70.4370
313.010	70.4361
313.174	70.4352
313.338	70.4342
313.498	70.4333
313.657	70.4323
313.816	70.4313
313.974	70.4304
314.132	70.4294
314.289	70.4286
314.445	70.4278
314.600	70.4269
314.753	70.4261
314.906	70.4251
315.057	70.4242
315.205	70.4232
315.355	70.4222
315.506	70.4213
315.653	70.4203
315.800	70.4193
315.945	70.4184
316.094	70.4176
316.245	70.4167
316.396	70.4158
316.549	70.4148
316.709	70.4138
316.869	70.4129
317.028	70.4120
317.190	70.4111
317.345	70.4103
317.502	70.4094
317.656	70.4084
317.807	70.4073
317.958	70.4063
318.107	70.4053
318.258	70.4044
318.406	70.4037
318.558	70.4028
318.710	70.4018
318.863	70.4008
319.016	70.3999
319.171	70.3990
319.333	70.3982
319.491	70.3974
319.654	70.3965
319.816	70.3958
319.976	70.3950
320.137	70.3941
320.298	70.3933
320.459	70.3925
320.617	70.3916
320.776	70.3906
320.933	70.3897
321.089	70.3886
321.244	70.3877
321.398	70.3868
321.554	70.3860
321.709	70.3851
321.867	70.3843
322.026	70.3834
322.190	70.3826
322.357	70.3818
322.527	70.3809
322.698	70.3801
322.867	70.3791
323.031	70.3783
323.190	70.3775
323.341	70.3766
323.491	70.3756
323.642	70.3749
323.796	70.3741
323.957	70.3734
324.119	70.3726
324.282	70.3716
324.444	70.3707
324.601	70.3698
324.754	70.3688
324.902	70.3679
325.048	70.3670
325.193	70.3660
325.339	70.3652
325.488	70.3643
325.637	70.3635
325.783	70.3626
325.929	70.3617
326.074	70.3607
326.220	70.3598
326.366	70.3590
326.514	70.3581
326.666	70.3573
326.825	70.3564
326.994	70.3556
327.169	70.3549
327.343	70.3541
327.517	70.3531
327.685	70.3521
327.849	70.3512
328.008	70.3503
328.163	70.3494
328.313	70.3485
328.462	70.3476
328.607	70.3468
328.753	70.3460
328.903	70.3452
329.052	70.3444
329.201	70.3436
329.349	70.3428
329.499	70.3419
329.649	70.3411
329.801	70.3403
329.961	70.3394
330.125	70.3386
330.292	70.3378
330.464	70.3369
330.638	70.3359
330.818	70.3350
330.996	70.3341
331.170	70.3333
331.344	70.3325
331.516	70.3317
331.678	70.3310
331.837	70.3301
331.987	70.3291
332.135	70.3282
332.282	70.3273
332.429	70.3264
332.577	70.3255
332.723	70.3247
332.869	70.3239
333.014	70.3230
333.162	70.3220
333.317	70.3211
333.476	70.3203
333.638	70.3195
333.805	70.3188
333.976	70.3180
334.150	70.3171
334.322	70.3162
334.493	70.3154
334.663	70.3145
334.833	70.3137
334.995	70.3129
335.150	70.3120
335.302	70.3112
335.452	70.3104
335.602	70.3094
335.755	70.3085
335.903	70.3076
336.051	70.3067
336.204	70.3058
336.360	70.3049
336.526	70.3041
336.698	70.3033
336.871	70.3025
337.046	70.3016
337.217	70.3007
337.384	70.2999
337.549	70.2990
337.713	70.2981
337.877	70.2972
338.039	70.2963
338.201	70.2955
338.360	70.2947
338.518	70.2939
338.674	70.2931
338.825	70.2923
338.974	70.2914
339.118	70.2905
339.259	70.2896
339.399	70.2888
339.539	70.2881
339.682	70.2871
339.826	70.2862
339.973	70.2852
340.122	70.2842
340.271	70.2832
340.420	70.2823
340.568	70.2815
340.721	70.2806
340.878	70.2796
341.044	70.2787
341.210	70.2778
341.377	70.2770
341.540	70.2762
341.705	70.2753
341.868	70.2745
342.033	70.2737
342.199	70.2728
342.362	70.2718
342.525	70.2709
342.685	70.2700
342.843	70.2691
342.996	70.2682
343.145	70.2673
343.288	70.2663
343.429	70.2654
343.573	70.2644
343.718	70.2635
343.868	70.2625
344.023	70.2616
344.180	70.2607
344.342	70.2598
344.506	70.2589
344.667	70.2580
344.828	70.2573
344.987	70.2565
345.143	70.2556
345.302	70.2547
345.462	70.2537
345.619	70.2527
345.777	70.2517
345.936	70.2508
346.100	70.2501
346.269	70.2491
346.437	70.2483
346.606	70.2474
346.774	70.2465
346.940	70.2457
347.105	70.2447
347.267	70.2438
347.432	70.2428
347.593	70.2420
347.758	70.2410
347.925	70.2402
348.095	70.2392
348.265	70.2382
348.440	70.2373
348.614	70.2364
348.786	70.2355
348.952	70.2346
349.112	70.2337
349.265	70.2328
349.418	70.2319
349.571	70.2309
349.721	70.2299
349.871	70.2289
350.024	70.2278
350.180	70.2270
350.338	70.2262
350.494	70.2253
350.649	70.2243
350.803	70.2233
350.956	70.2222
351.112	70.2213
351.272	70.2204
351.434	70.2194
351.598	70.2185
351.762	70.2176
351.923	70.2167
352.082	70.2158
352.238	70.2148
352.390	70.2139
352.534	70.2129
352.676	70.2118
352.820	70.2107
352.966	70.2096
353.116	70.2087
353.267	70.2078
353.423	70.2070
353.583	70.2062
353.741	70.2053
353.899	70.2043
354.053	70.2034
354.205	70.2023
354.363	70.2014
354.524	70.2004
354.685	70.1994
354.846	70.1986
354.998	70.1977
355.146	70.1967
355.292	70.1957
355.443	70.1946
355.603	70.1936
355.767	70.1926
355.934	70.1916
356.101	70.1906
356.266	70.1896
356.431	70.1885
356.599	70.1874
356.767	70.1864
356.936	70.1856
357.110	70.1847
357.287	70.1839
357.469	70.1830
357.651	70.1820
357.830	70.1811
358.005	70.1799
358.179	70.1790
358.351	70.1780
358.519	70.1770
358.683	70.1761
358.839	70.1752
358.991	70.1742
359.141	70.1732
359.291	70.1722
359.445	70.1710
359.601	70.1701
359.757	70.1691
359.913	70.1681
360.073	70.1671
360.232	70.1662
360.393	70.1652
360.557	70.1643
360.717	70.1632
360.877	70.1621
361.035	70.1609
361.188	70.1599
361.339	70.1588
361.488	70.1577
361.637	70.1567
361.785	70.1558
361.939	70.1548
362.097	70.1537
362.257	70.1527
362.418	70.1517
362.582	70.1506
362.749	70.1496
362.915	70.1484
363.082	70.1474
363.246	70.1464
363.403	70.1453
363.561	70.1443
363.719	70.1432
363.881	70.1421
364.040	70.1409
364.202	70.1399
364.358	70.1388
364.518	70.1377
364.672	70.1367
364.824	70.1356
364.975	70.1344
365.123	70.1333
365.269	70.1324
365.413	70.1314
365.557	70.1304
365.701	70.1292
365.847	70.1281
365.997	70.1271
366.152	70.1260
366.316	70.1250
366.484	70.1240
366.655	70.1229
366.830	70.1218
367.003	70.1207
367.175	70.1196
367.347	70.1185
367.519	70.1174
367.692	70.1162
367.865	70.1151
368.040	70.1141
368.217	70.1130
368.395	70.1119
368.573	70.1108
368.750	70.1095
368.927	70.1084
369.104	70.1073
369.277	70.1062
369.449	70.1051
369.618	70.1039
369.782	70.1027
369.944	70.1015
370.105	70.1004
370.265	70.0991
370.428	70.0980
370.592	70.0970
370.757	70.0959
370.920	70.0946
371.088	70.0933
371.253	70.0920
371.423	70.0907
371.595	70.0895
371.767	70.0883
371.939	70.0871
372.107	70.0859
372.270	70.0848
372.425	70.0835
372.574	70.0824
372.723	70.0812
372.872	70.0801
373.025	70.0788
373.181	70.0777
373.340	70.0767
373.499	70.0755
373.660	70.0743
373.823	70.0730
373.986	70.0719
374.145	70.0707
374.304	70.0694
374.461	70.0681
374.618	70.0668
374.776	70.0656
374.936	70.0643
375.098	70.0631
375.261	70.0619
375.420	70.0607
375.576	70.0595
375.728	70.0583
375.883	70.0571
376.041	70.0557
376.203	70.0544
376.365	70.0532
376.525	70.0520
376.680	70.0507
376.836	70.0495
376.992	70.0482
377.152	70.0468
377.314	70.0455
377.477	70.0443
377.643	70.0429
377.812	70.0416
377.981	70.0402
378.152	70.0388
378.322	70.0375
378.489	70.0363
378.649	70.0352
378.809	70.0339
378.965	70.0325
379.117	70.0311
379.265	70.0296
379.412	70.0283
379.558	70.0269
379.711	70.0257
379.866	70.0245
380.027	70.0233
380.192	70.0220
380.357	70.0206
380.523	70.0191
380.682	70.0178
380.838	70.0165
380.996	70.0152
381.152	70.0139
381.310	70.0126
381.463	70.0114
381.615	70.0102
381.767	70.0090
381.920	70.0078
382.077	70.0064
382.238	70.0050
382.400	70.0036
382.567	70.0022
382.737	70.0007
382.911	69.9993
383.085	69.9978
383.260	69.9963
383.429	69.9951
383.594	69.9939
383.759	69.9926
383.934	69.9912
384.118	69.9898
384.307	69.9884
384.495	69.9870
384.679	69.9857
384.854	69.9845
385.018	69.9832
385.175	69.9819
385.329	69.9806
385.484	69.9791
385.640	69.9776
385.796	69.9762
385.950	69.9748
386.112	69.9733
386.277	69.9719
386.446	69.9704
386.609	69.9690
386.769	69.9676
386.924	69.9663
387.078	69.9650
387.235	69.9636
387.392	69.9622
387.553	69.9609
387.713	69.9595
387.872	69.9581
388.029	69.9568
388.185	69.9555
388.342	69.9540
388.500	69.9526
388.658	69.9512
388.820	69.9498
388.981	69.9486
389.144	69.9473
389.307	69.9457
389.473	69.9442
389.636	69.9427
389.801	69.9413
389.970	69.9399
390.137	69.9386
390.302	69.9372
390.461	69.9358
390.614	69.9343
390.761	69.9328
390.905	69.9315
391.050	69.9301
391.193	69.9288
391.340	69.9275
391.489	69.9260
391.642	69.9246
391.800	69.9232
391.960	69.9218
392.129	69.9203
392.302	69.9190
392.475	69.9176
392.649	69.9161
392.827	69.9147
393.009	69.9134
393.198	69.9120
393.392	69.9107
393.588	69.9092
393.785	69.9077
393.980	69.9064
394.169	69.9049
394.356	69.9035
394.538	69.9021
394.717	69.9005
394.893	69.8991
395.068	69.8978
395.241	69.8964
395.412	69.8951
395.586	69.8938
395.759	69.8925
395.931	69.8911
396.099	69.8897
396.269	69.8883
396.436	69.8869
396.599	69.8854
396.761	69.8842
396.926	69.8829
397.091	69.8815
397.259	69.8801
397.424	69.8785
397.589	69.8770
397.751	69.8756
397.914	69.8742
398.076	69.8729
398.237	69.8716
398.401	69.8703
398.564	69.8689
398.728	69.8675
398.891	69.8661
399.052	69.8646
399.217	69.8631
399.381	69.8616
399.541	69.8602
399.696	69.8587
399.847	69.8573
399.993	69.8559
400.139	69.8545
400.290	69.8532
400.447	69.8518
400.612	69.8505
400.785	69.8493
400.962	69.8481
401.137	69.8469
401.306	69.8457
401.463	69.8443
401.614	69.8429
401.764	69.8415
401.917	69.8402
402.073	69.8390
402.234	69.8377
402.392	69.8362
402.551	69.8348
402.705	69.8335
402.861	69.8323
403.020	69.8310
403.181	69.8297
403.342	69.8284
403.502	69.8271
403.659	69.8258
403.822	69.8244
403.991	69.8229
404.169	69.8215
404.347	69.8203
404.524	69.8190
404.693	69.8179
404.856	69.8166
405.016	69.8153
405.168	69.8139
405.319	69.8125
405.470	69.8113
405.620	69.8102
405.778	69.8091
405.942	69.8079
406.111	69.8066
406.283	69.8053
406.451	69.8041
406.618	69.8028
406.778	69.8014
406.931	69.8002
407.080	69.7990
407.225	69.7977
407.366	69.7965
407.502	69.7953
407.639	69.7940
407.782	69.7928
407.931	69.7915
408.084	69.7903
408.244	69.7892
408.410	69.7881
408.580	69.7870
408.749	69.7857
408.914	69.7845
409.076	69.7833
409.238	69.7821
409.403	69.7807
409.571	69.7794
409.740	69.7782
409.911	69.7770
410.079	69.7758
410.243	69.7747
410.405	69.7735
410.567	69.7723
410.736	69.7712
410.914	69.7701
411.100	69.7690
411.286	69.7679
411.464	69.7668
411.636	69.7656
411.801	69.7644
411.965	69.7633
412.131	69.7622
412.298	69.7612
412.467	69.7602
412.639	69.7591
412.808	69.7579
412.976	69.7567
413.143	69.7556
413.312	69.7544
413.479	69.7533
413.643	69.7521
413.806	69.7509
413.968	69.7497
414.129	69.7486
414.292	69.7474
414.451	69.7463
414.609	69.7453
414.761	69.7442
414.911	69.7431
415.059	69.7421
415.205	69.7409
415.354	69.7398
415.508	69.7388
415.655	69.7379
415.798	69.7369
415.933	69.7358
416.068	69.7348
416.212	69.7336
416.364	69.7325
416.528	69.7315
416.702	69.7305
416.883	69.7293
417.066	69.7283
417.239	69.7272
417.399	69.7262
417.548	69.7250
417.695	69.7240
417.839	69.7229
417.980	69.7218
418.125	69.7206
418.279	69.7196
418.439	69.7186
418.608	69.7178
418.782	69.7168
418.960	69.7159
419.137	69.7150
419.310	69.7142
419.480	69.7131
419.654	69.7119
419.826	69.7108
420.000	69.7097
420.174	69.7086
420.346	69.7076
420.522	69.7067
420.694	69.7059
420.864	69.7051
421.029	69.7043
421.188	69.7034
421.347	69.7025
421.506	69.7015
421.665	69.7005
421.828	69.6995
421.995	69.6985
422.164	69.6975
422.333	69.6966
422.502	69.6956
422.667	69.6946
422.827	69.6936
422.988	69.6927
423.146	69.6919
423.305	69.6909
423.467	69.6900
423.628	69.6890
423.789	69.6881
423.946	69.6873
424.103	69.6865
424.258	69.6855
424.414	69.6845
424.572	69.6836
424.731	69.6827
424.891	69.6818
425.050	69.6808
425.210	69.6799
425.370	69.6791
425.540	69.6781
425.717	69.6772
425.901	69.6763
426.085	69.6754
426.266	69.6747
426.432	69.6738
426.590	69.6729
426.745	69.6720
426.897	69.6712
427.039	69.6704
427.179	69.6696
427.324	69.6687
427.472	69.6680
427.625	69.6672
427.785	69.6666
427.951	69.6658
428.121	69.6649
428.293	69.6641
428.465	69.6633
428.634	69.6625
428.801	69.6617
428.964	69.6609
429.127	69.6600
429.293	69.6592
429.460	69.6583
429.627	69.6575
429.792	69.6569
429.960	69.6562
430.123	69.6554
430.284	69.6546
430.442	69.6537
430.602	69.6528
430.766	69.6520
430.934	69.6512
431.105	69.6505
431.277	69.6497
431.447	69.6490
431.605	69.6482
431.755	69.6475
431.900	69.6469
432.042	69.6461
432.185	69.6453
432.327	69.6446
432.474	69.6438
432.628	69.6431
432.789	69.6424
432.953	69.6417
433.122	69.6409
433.293	69.6401
433.473	69.6394
433.656	69.6387
433.837	69.6379
434.014	69.6372
434.190	69.6364
434.368	69.6357
434.548	69.6351
434.729	69.6345
434.904	69.6339
435.070	69.6332
435.228	69.6325
435.382	69.6318
435.535	69.6310
435.683	69.6303
435.830	69.6296
435.976	69.6291
436.125	69.6286
436.273	69.6279
436.420	69.6272
436.569	69.6264
436.728	69.6258
436.898	69.6251
437.077	69.6244
437.255	69.6237
437.429	69.6230
437.597	69.6223
437.763	69.6218
437.923	69.6212
438.081	69.6205
438.243	69.6199
438.406	69.6194
438.569	69.6189
438.726	69.6184
438.878	69.6178
439.024	69.6171
439.168	69.6163
439.310	69.6158
439.449	69.6154
439.589	69.6148
439.733	69.6142
439.881	69.6135
440.035	69.6129
440.193	69.6122
440.357	69.6116
440.527	69.6111
440.702	69.6105
440.883	69.6099
441.071	69.6093
441.269	69.6088
441.470	69.6082
441.668	69.6075
441.861	69.6070
442.047	69.6064
442.227	69.6059
442.403	69.6054
442.573	69.6048
442.742	69.6043
442.908	69.6035
443.076	69.6028
443.244	69.6021
443.411	69.6016
443.581	69.6013
443.746	69.6009
443.909	69.6004
444.074	69.5998
444.236	69.5992
444.397	69.5986
444.557	69.5980
444.719	69.5975
444.882	69.5969
445.046	69.5964
445.209	69.5959
445.373	69.5955
445.543	69.5952
445.717	69.5945
445.887	69.5939
446.048	69.5933
446.198	69.5926
446.342	69.5919
446.486	69.5914
446.629	69.5910
446.773	69.5907
446.924	69.5902
447.082	69.5897
447.246	69.5893
447.414	69.5888
447.587	69.5884
447.756	69.5879
447.923	69.5875
448.083	69.5871
448.237	69.5865
448.385	69.5859
448.530	69.5855
448.676	69.5850
448.829	69.5845
448.987	69.5840
449.149	69.5836
449.316	69.5830
449.483	69.5824
449.654	69.5820
449.825	69.5816
449.990	69.5811
450.147	69.5806
450.301	69.5803
450.458	69.5798
450.619	69.5794
450.782	69.5789
450.948	69.5784
451.119	69.5779
451.296	69.5776
451.474	69.5772
451.645	69.5767
451.807	69.5761
451.965	69.5756
452.129	69.5751
452.303	69.5746
452.481	69.5742
452.648	69.5738
452.811	69.5733
452.970	69.5729
453.125	69.5725
453.277	69.5721
453.427	69.5717
453.574	69.5712
453.719	69.5708
453.863	69.5703
454.009	69.5697
454.157	69.5693
454.309	69.5690
454.459	69.5687
454.609	69.5683
454.759	69.5679
454.908	69.5674
455.062	69.5669
455.223	69.5664
455.389	69.5660
455.560	69.5656
455.735	69.5653
455.906	69.5648
456.077	69.5644
456.248	69.5639
456.424	69.5636
456.600	69.5633
456.769	69.5630
456.931	69.5625
457.089	69.5620
457.254	69.5615
457.427	69.5610
457.601	69.5606
457.775	69.5600
457.944	69.5595
458.108	69.5590
458.270	69.5584
458.433	69.5580
458.598	69.5576
458.765	69.5574
458.933	69.5571
459.098	69.5569
459.261	69.5567
459.420	69.5564
459.576	69.5559
459.733	69.5554
459.892	69.5549
460.047	69.5544
460.205	69.5540
460.364	69.5536
460.529	69.5532
460.697	69.5528
460.863	69.5525
461.025	69.5523
461.186	69.5520
461.350	69.5517
461.518	69.5513
461.691	69.5508
461.867	69.5504
462.039	69.5500
462.208	69.5495
462.379	69.5490
462.534	69.5486
462.665	69.5480
462.791	69.5475
462.938	69.5471
463.103	69.5469
463.283	69.5467
463.473	69.5464
463.664	69.5462
463.853	69.5458
464.041	69.5454
464.221	69.5450
464.400	69.5445
464.572	69.5441
464.746	69.5437
464.918	69.5433
465.088	69.5428
465.251	69.5424
465.410	69.5420
465.559	69.5415
465.700	69.5411
465.840	69.5406
465.987	69.5404
466.142	69.5401
466.292	69.5398
466.435	69.5395
466.566	69.5391
466.696	69.5387
466.829	69.5383
466.966	69.5378
467.105	69.5373
467.245	69.5369
467.388	69.5365
467.531	69.5361
467.675	69.5359
467.821	69.5354
467.962	69.5349
468.098	69.5345
468.233	69.5340
468.365	69.5336
468.494	69.5334
468.627	69.5332
468.765	69.5329
468.913	69.5327
469.070	69.5325
469.231	69.5323
469.397	69.5319
469.564	69.5316
469.734	69.5312
469.914	69.5307
470.098	69.5302
470.279	69.5296
470.451	69.5290
470.614	69.5286
470.772	69.5282
470.932	69.5279
471.097	69.5276
471.264	69.5274
471.425	69.5271
471.586	69.5268
471.746	69.5263
471.901	69.5259
472.052	69.5256
472.198	69.5253
472.343	69.5248
472.490	69.5245
472.642	69.5242
472.807	69.5240
472.985	69.5238
473.169	69.5235
473.355	69.5232
473.540	69.5228
473.719	69.5223
473.892	69.5219
474.062	69.5215
474.227	69.5212
474.392	69.5209
474.558	69.5203
474.730	69.5198
474.906	69.5195
475.080	69.5191
475.251	69.5187
475.417	69.5182
475.578	69.5179
475.736	69.5176
475.896	69.5175
476.060	69.5173
476.230	69.5171
476.405	69.5168
476.582	69.5165
476.754	69.5160
476.920	69.5156
477.083	69.5152
477.246	69.5148
477.411	69.5145
477.579	69.5143
477.752	69.5140
477.938	69.5137
478.131	69.5133
478.314	69.5128
478.477	69.5124
478.626	69.5120
478.767	69.5116
478.908	69.5113
479.049	69.5110
479.199	69.5106
479.349	69.5102
479.511	69.5097
479.688	69.5092
479.868	69.5089
480.039	69.5086
480.204	69.5083
480.368	69.5081
480.525	69.5079
480.677	69.5076
480.830	69.5074
480.982	69.5072
481.136	69.5069
481.293	69.5065
481.451	69.5062
481.611	69.5058
481.780	69.5053
481.966	69.5048
482.168	69.5044
482.366	69.5039
482.545	69.5036
482.705	69.5033
482.854	69.5029
482.999	69.5026
483.139	69.5023
483.281	69.5019
483.428	69.5015
483.588	69.5012
483.756	69.5009
483.934	69.5006
484.116	69.5003
484.296	69.5000
484.460	69.4998
484.613	69.4994
484.777	69.4991
484.963	69.4988
485.166	69.4984
485.374	69.4981
485.576	69.4977
485.770	69.4974
485.957	69.4972
486.141	69.4969
486.326	69.4966
486.510	69.4962
486.689	69.4957
486.854	69.4953
487.009	69.4950
487.167	69.4946
487.324	69.4943
487.483	69.4941
487.640	69.4937
487.794	69.4934
487.951	69.4930
488.110	69.4926
488.272	69.4924
488.434	69.4922
488.598	69.4918
488.769	69.4914
488.946	69.4911
489.129	69.4907
489.308	69.4905
489.484	69.4904
489.654	69.4901
489.819	69.4898
489.981	69.4894
490.141	69.4890
490.303	69.4885
490.473	69.4881
490.644	69.4877
490.814	69.4874
490.980	69.4870
491.142	69.4868
491.308	69.4865
491.476	69.4862
491.643	69.4859
491.802	69.4856
491.957	69.4852
492.112	69.4849
492.273	69.4846
492.440	69.4843
492.605	69.4839
492.773	69.4836
492.944	69.4833
493.119	69.4830
493.291	69.4826
493.457	69.4823
493.622	69.4820
493.786	69.4817
493.949	69.4814
494.118	69.4810
494.289	69.4807
494.464	69.4804
494.635	69.4801
494.806	69.4798
494.983	69.4794
495.166	69.4791
495.348	69.4789
495.530	69.4785
495.707	69.4783
495.872	69.4779
496.028	69.4775
496.184	69.4772
496.342	69.4769
496.508	69.4766
496.680	69.4763
496.843	69.4760
496.995	69.4758
497.142	69.4755
497.282	69.4751
497.422	69.4748
497.564	69.4744
497.714	69.4739
497.878	69.4735
498.052	69.4733
498.227	69.4731
498.397	69.4727
498.566	69.4723
498.740	69.4720
498.915	69.4717
499.089	69.4714
499.260	69.4712
499.426	69.4709
499.592	69.4706
499.765	69.4702
499.946	69.4699
500.131	69.4695
500.313	69.4691
500.494	69.4689
500.679	69.4686
500.872	69.4684
501.059	69.4682
501.242	69.4680
501.424	69.4677
501.606	69.4674
501.790	69.4670
501.976	69.4666
502.164	69.4663
502.345	69.4660
502.522	69.4656
502.696	69.4651
502.871	69.4646
503.044	69.4643
503.219	69.4640
503.392	69.4638
503.563	69.4635
503.734	69.4633
503.901	69.4631
504.065	69.4628
504.225	69.4625
504.385	69.4622
504.548	69.4619
504.713	69.4616
504.874	69.4613
505.030	69.4610
505.182	69.4607
505.337	69.4604
505.499	69.4601
505.659	69.4598
505.812	69.4595
505.963	69.4593
506.122	69.4590
506.286	69.4586
506.456	69.4583
506.632	69.4580
506.813	69.4579
506.999	69.4576
507.185	69.4573
507.373	69.4569
507.563	69.4564
507.758	69.4561
507.951	69.4557
508.136	69.4553
508.308	69.4550
508.465	69.4546
508.615	69.4543
508.765	69.4541
508.917	69.4539
509.074	69.4537
509.232	69.4533
509.393	69.4527
509.553	69.4524
509.713	69.4521
509.873	69.4517
510.028	69.4513
510.182	69.4509
510.334	69.4507
510.488	69.4505
510.642	69.4503
510.790	69.4501
510.937	69.4498
511.092	69.4495
511.253	69.4492
511.415	69.4489
511.577	69.4487
511.740	69.4483
511.899	69.4479
512.054	69.4476
512.210	69.4473
512.368	69.4470
512.529	69.4468
512.692	69.4466
512.854	69.4463
513.015	69.4459
513.181	69.4455
513.347	69.4451
513.518	69.4447
513.697	69.4444
513.883	69.4440
514.076	69.4436
514.268	69.4434
514.452	69.4432
514.632	69.4430
514.804	69.4426
514.966	69.4425
515.128	69.4423
515.296	69.4420
515.464	69.4416
515.627	69.4412
515.781	69.4408
515.931	69.4404
516.080	69.4401
516.231	69.4398
516.385	69.4396
516.545	69.4393
516.711	69.4389
516.878	69.4385
517.039	69.4383
517.190	69.4381
517.335	69.4377
517.487	69.4373
517.649	69.4368
517.829	69.4363
518.021	69.4360
518.221	69.4356
518.423	69.4353
518.625	69.4350
518.819	69.4347
519.000	69.4345
519.171	69.4342
519.342	69.4340
519.515	69.4338
519.689	69.4336
519.857	69.4332
520.008	69.4327
520.146	69.4321
520.289	69.4316
520.449	69.4312
520.626	69.4308
520.806	69.4305
520.987	69.4302
521.169	69.4300
521.352	69.4299
521.532	69.4296
521.709	69.4292
521.883	69.4288
522.060	69.4283
522.240	69.4280
522.417	69.4279
522.592	69.4277
522.769	69.4274
522.937	69.4270
523.095	69.4265
523.237	69.4261
523.375	69.4257
523.520	69.4254
523.672	69.4250
523.831	69.4246
523.992	69.4242
524.147	69.4239
524.298	69.4236
524.440	69.4233
524.577	69.4230
524.709	69.4227
524.847	69.4224
524.992	69.4221
525.150	69.4217
525.321	69.4212
525.503	69.4208
525.697	69.4204
525.905	69.4200
526.120	69.4197
526.332	69.4193
526.535	69.4189
526.734	69.4185
526.922	69.4181
527.102	69.4176
527.278	69.4173
527.455	69.4169
527.626	69.4165
527.778	69.4162
527.918	69.4158
528.052	69.4154
528.187	69.4150
528.320	69.4147
528.461	69.4143
528.609	69.4139
528.758	69.4136
528.904	69.4133
529.052	69.4129
529.211	69.4124
529.383	69.4118
529.564	69.4112
529.743	69.4109
529.924	69.4105
530.108	69.4101
530.287	69.4099
530.464	69.4095
530.632	69.4093
530.793	69.4089
530.947	69.4085
531.099	69.4079
531.258	69.4074
531.422	69.4069
531.595	69.4065
531.774	69.4061
531.950	69.4058
532.118	69.4054
532.281	69.4051
532.442	69.4047
532.604	69.4042
532.767	69.4037
532.935	69.4032
533.108	69.4027
533.281	69.4022
533.448	69.4019
533.615	69.4016
533.785	69.4012
533.954	69.4009
534.120	69.4003
534.283	69.3997
534.450	69.3991
534.618	69.3986
534.784	69.3982
534.944	69.3978
535.103	69.3974
535.264	69.3970
535.430	69.3967
535.597	69.3963
535.759	69.3958
535.915	69.3953
536.064	69.3949
536.213	69.3944
536.360	69.3940
536.497	69.3936
536.621	69.3930
536.742	69.3926
536.866	69.3922
537.000	69.3919
537.140	69.3915
537.284	69.3910
537.436	69.3906
537.595	69.3902
537.759	69.3899
537.929	69.3894
538.100	69.3888
538.271	69.3883
538.435	69.3879
538.592	69.3875
538.748	69.3870
538.914	69.3864
539.100	69.3859
539.295	69.3855
539.497	69.3850
539.699	69.3845
539.893	69.3840
540.077	69.3835
540.249	69.3830
540.410	69.3825
540.566	69.3821
540.718	69.3816
540.873	69.3812
541.045	69.3809
541.235	69.3806
541.431	69.3802
541.627	69.3796
541.815	69.3791
541.987	69.3784
542.150	69.3778
542.310	69.3773
542.469	69.3767
542.633	69.3763
542.800	69.3758
542.968	69.3754
543.140	69.3750
543.310	69.3747
543.481	69.3742
543.648	69.3736
543.809	69.3730
543.969	69.3725
544.131	69.3720
544.290	69.3714
544.447	69.3708
544.610	69.3703
544.779	69.3698
544.952	69.3693
545.131	69.3686
545.315	69.3681
545.503	69.3676
545.700	69.3671
545.902	69.3667
546.106	69.3663
546.296	69.3658
546.448	69.3654
546.576	69.3650
546.696	69.3644
546.821	69.3639
546.949	69.3634
547.086	69.3629
547.233	69.3625
547.389	69.3622
547.551	69.3618
547.719	69.3614
547.891	69.3608
548.063	69.3602
548.232	69.3597
548.393	69.3592
548.548	69.3585
548.702	69.3578
548.865	69.3572
549.037	69.3567
549.208	69.3563
549.373	69.3559
549.536	69.3555
549.696	69.3552
549.854	69.3549
550.013	69.3543
550.174	69.3538
550.335	69.3532
550.495	69.3526
550.650	69.3520
550.810	69.3515
550.972	69.3510
551.139	69.3505
551.312	69.3499
551.496	69.3493
551.692	69.3488
551.897	69.3484
552.105	69.3479
552.305	69.3475
552.502	69.3471
552.694	69.3465
552.879	69.3459
553.054	69.3452
553.220	69.3447
553.383	69.3441
553.541	69.3436
553.690	69.3431
553.834	69.3426
553.984	69.3421
554.142	69.3416
554.305	69.3410
554.459	69.3406
554.604	69.3402
554.737	69.3397
554.863	69.3393
554.994	69.3388
555.136	69.3383
555.287	69.3377
555.443	69.3372
555.602	69.3366
555.760	69.3361
555.921	69.3357
556.081	69.3354
556.237	69.3351
556.389	69.3346
556.538	69.3340
556.685	69.3333
556.838	69.3326
556.993	69.3319
557.151	69.3313
557.312	69.3308
557.483	69.3301
557.661	69.3296
557.847	69.3291
558.036	69.3287
558.230	69.3285
558.428	69.3282
558.625	69.3278
558.818	69.3272
559.001	69.3267
559.173	69.3262
559.341	69.3257
559.513	69.3252
559.690	69.3245
559.869	69.3239
560.044	69.3232
560.204	69.3227
560.361	69.3223
560.516	69.3218
560.667	69.3214
560.819	69.3210
560.982	69.3205
561.152	69.3202
561.324	69.3198
561.495	69.3193
561.666	69.3188
561.836	69.3183
562.004	69.3177
562.160	69.3172
562.309	69.3167
562.458	69.3161
562.613	69.3155
562.776	69.3149
562.949	69.3143
563.130	69.3139
563.312	69.3134
563.500	69.3130
563.692	69.3125
563.886	69.3120
564.073	69.3115
564.246	69.3109
564.409	69.3103
564.562	69.3098
564.704	69.3093
564.848	69.3088
565.001	69.3084
565.156	69.3079
565.310	69.3074
565.458	69.3068
565.610	69.3062
565.768	69.3058
565.935	69.3053
566.106	69.3048
566.280	69.3044
566.458	69.3040
566.645	69.3036
566.844	69.3031
567.040	69.3027
567.231	69.3022
567.422	69.3016
567.618	69.3011
567.814	69.3006
568.008	69.3000
568.189	69.2995
568.358	69.2990
568.512	69.2985
568.655	69.2980
568.790	69.2974
568.920	69.2970
569.058	69.2965
569.204	69.2960
569.349	69.2955
569.490	69.2951
569.642	69.2947
569.808	69.2942
569.989	69.2939
570.189	69.2933
570.405	69.2926
570.617	69.2920
570.817	69.2915
571.012	69.2910
571.207	69.2905
571.407	69.2901
571.614	69.2898
571.823	69.2895
572.031	69.2891
572.234	69.2887
572.431	69.2881
572.623	69.2876
572.807	69.2871
572.983	69.2866
573.146	69.2861
573.302	69.2857
573.454	69.2852
573.599	69.2846
573.744	69.2841
573.893	69.2836
574.047	69.2832
574.207	69.2828
574.371	69.2824
574.537	69.2819
574.706	69.2815
574.875	69.2810
575.046	69.2805
575.218	69.2801
575.395	69.2795
575.573	69.2791
575.749	69.2786
575.922	69.2779
576.092	69.2773
576.260	69.2770
576.427	69.2767
576.598	69.2764
576.768	69.2760
576.936	69.2757
577.104	69.2753
577.281	69.2749
577.469	69.2744
577.669	69.2740
577.871	69.2735
578.059	69.2730
578.239	69.2725
578.411	69.2721
578.580	69.2717
578.735	69.2712
578.878	69.2708
579.012	69.2705
579.150	69.2701
579.295	69.2696
579.445	69.2690
579.600	69.2686
579.757	69.2682
579.924	69.2678
580.102	69.2674
580.285	69.2669
580.463	69.2665
580.633	69.2661
580.802	69.2657
580.970	69.2654
581.131	69.2650
581.267	69.2646
581.384	69.2641
581.503	69.2637
581.629	69.2632
581.759	69.2627
581.888	69.2623
582.008	69.2619
582.121	69.2614
582.245	69.2611
582.377	69.2607
582.517	69.2604
582.660	69.2599
582.813	69.2595
582.979	69.2592
583.162	69.2588
583.365	69.2584
583.584	69.2583
583.811	69.2579
584.049	69.2574
584.289	69.2569
584.515	69.2562
584.720	69.2557
584.908	69.2553
585.087	69.2551
585.261	69.2547
585.432	69.2543
585.605	69.2539
585.779	69.2536
585.950	69.2531
586.119	69.2527
586.289	69.2525
586.457	69.2521
586.625	69.2518
586.798	69.2515
586.970	69.2511
587.136	69.2506
587.297	69.2501
587.460	69.2495
587.627	69.2491
587.798	69.2487
587.969	69.2483
588.144	69.2479
588.318	69.2476
588.494	69.2473
588.676	69.2470
588.858	69.2466
589.031	69.2464
589.185	69.2462
589.341	69.2459
589.515	69.2454
589.714	69.2450
589.924	69.2445
590.135	69.2440
590.345	69.2436
590.548	69.2432
590.732	69.2427
590.883	69.2424
591.019	69.2420
591.162	69.2415
591.314	69.2409
591.468	69.2406
591.626	69.2403
591.792	69.2400
591.957	69.2397
592.125	69.2394
592.292	69.2390
592.459	69.2387
592.626	69.2385
592.794	69.2382
592.960	69.2379
593.125	69.2375
593.292	69.2370
593.463	69.2366
593.632	69.2361
593.803	69.2356
593.981	69.2353
594.155	69.2349
594.322	69.2345
594.478	69.2342
594.627	69.2337
594.757	69.2334
594.868	69.2331
594.974	69.2329
595.089	69.2325
595.212	69.2322
595.344	69.2318
595.492	69.2314
595.659	69.2310
595.855	69.2306
596.076	69.2302
596.302	69.2298
596.523	69.2295
596.727	69.2292
596.921	69.2290
597.112	69.2286
597.293	69.2282
597.473	69.2279
597.654	69.2275
597.842	69.2271
598.033	69.2268
598.225	69.2266
598.409	69.2263
598.572	69.2261
598.709	69.2257
598.828	69.2253
598.942	69.2249
599.063	69.2245
599.196	69.2242
599.337	69.2238
599.486	69.2233
599.633	69.2228
599.783	69.2222
599.927	69.2219
600.073	69.2215
600.233	69.2212
600.417	69.2209
600.607	69.2206
600.789	69.2203
600.958	69.2200
601.122	69.2197
601.302	69.2194
601.506	69.2190
601.732	69.2187
601.967	69.2183
602.187	69.2180
602.386	69.2177
602.570	69.2173
602.751	69.2170
602.924	69.2167
603.086	69.2163
603.236	69.2160
603.388	69.2156
603.537	69.2153
603.678	69.2149
603.812	69.2146
603.940	69.2143
604.081	69.2140
604.256	69.2137
604.458	69.2134
604.672	69.2131
604.876	69.2128
605.059	69.2125
605.231	69.2121
605.402	69.2117
605.568	69.2114
605.726	69.2110
605.876	69.2107
606.027	69.2102
606.178	69.2099
606.326	69.2097
606.460	69.2095
606.591	69.2092
606.730	69.2089
606.877	69.2086
607.031	69.2083
607.200	69.2080
607.390	69.2076
607.581	69.2073
607.774	69.2069
607.970	69.2066
608.163	69.2063
608.354	69.2060
608.532	69.2056
608.693	69.2053
608.835	69.2049
608.965	69.2047
609.103	69.2044
609.252	69.2041
609.421	69.2037
609.599	69.2033
609.775	69.2030
609.951	69.2027
610.126	69.2025
610.303	69.2022
610.488	69.2019
610.676	69.2016
610.858	69.2012
611.027	69.2008
611.188	69.2005
611.345	69.2002
611.505	69.1999
611.666	69.1997
611.848	69.1994
612.050	69.1992
612.268	69.1989
612.484	69.1985
612.694	69.1982
612.901	69.1979
613.105	69.1975
613.311	69.1973
613.511	69.1971
613.700	69.1969
613.876	69.1965
614.044	69.1961
614.208	69.1956
614.371	69.1952
614.539	69.1947
614.711	69.1944
614.892	69.1940
615.073	69.1936
615.241	69.1933
615.388	69.1930
615.523	69.1928
615.656	69.1927
615.797	69.1924
615.947	69.1923
616.103	69.1921
616.264	69.1918
616.422	69.1914
616.582	69.1910
616.742	69.1905
616.910	69.1900
617.084	69.1896
617.256	69.1894
617.425	69.1892
617.596	69.1890
617.767	69.1888
617.944	69.1884
618.125	69.1881
618.309	69.1877
618.496	69.1874
618.681	69.1871
618.860	69.1868
619.021	69.1865
619.174	69.1862
619.331	69.1858
619.493	69.1855
619.656	69.1852
619.821	69.1850
619.992	69.1848
620.167	69.1845
620.337	69.1843
620.501	69.1840
620.663	69.1838
620.822	69.1834
620.971	69.1831
621.118	69.1829
621.271	69.1825
621.426	69.1822
621.592	69.1819
621.761	69.1816
621.930	69.1813
622.099	69.1810
622.270	69.1807
622.440	69.1804
622.606	69.1801
622.767	69.1798
622.922	69.1796
623.078	69.1794
623.238	69.1790
623.401	69.1787
623.560	69.1783
623.715	69.1779
623.865	69.1776
624.014	69.1774
624.169	69.1773
624.324	69.1770
624.475	69.1767
624.628	69.1763
624.783	69.1761
624.937	69.1758
625.099	69.1756
625.268	69.1754
625.440	69.1752
625.619	69.1748
625.796	69.1745
625.971	69.1742
626.143	69.1738
626.308	69.1736
626.466	69.1733
626.629	69.1729
626.800	69.1725
626.974	69.1721
627.142	69.1719
627.303	69.1718
627.462	69.1717
627.621	69.1715
627.776	69.1710
627.927	69.1705
628.070	69.1700
628.211	69.1696
628.352	69.1694
628.502	69.1691
628.658	69.1690
628.829	69.1688
629.010	69.1686
629.187	69.1684
629.356	69.1682
629.513	69.1679
629.668	69.1677
629.827	69.1675
629.982	69.1671
630.135	69.1669
630.284	69.1667
630.425	69.1665
630.567	69.1662
630.708	69.1659
630.855	69.1656
631.001	69.1653
631.129	69.1652
631.235	69.1650
631.325	69.1649
631.419	69.1648
631.542	69.1644
631.706	69.1641
631.916	69.1637
632.149	69.1633
632.388	69.1629
632.623	69.1626
632.846	69.1623
633.054	69.1621
633.249	69.1617
633.432	69.1615
633.612	69.1611
633.790	69.1607
633.965	69.1603
634.137	69.1600
634.302	69.1599
634.455	69.1597
634.608	69.1596
634.773	69.1594
634.948	69.1592
635.120	69.1589
635.275	69.1586
635.420	69.1585
635.563	69.1584
635.719	69.1582
635.881	69.1579
636.044	69.1577
636.205	69.1574
636.367	69.1570
636.535	69.1566
636.714	69.1561
636.900	69.1558
637.086	69.1556
637.264	69.1555
637.436	69.1554
637.606	69.1552
637.774	69.1552
637.936	69.1550
638.092	69.1548
638.245	69.1544
638.393	69.1542
638.538	69.1538
638.679	69.1535
638.818	69.1532
638.967	69.1529
639.129	69.1527
639.301	69.1525
639.480	69.1523
639.661	69.1522
639.837	69.1520
640.003	69.1518
640.165	69.1515
640.317	69.1512
640.466	69.1508
640.619	69.1505
640.774	69.1502
640.933	69.1499
641.094	69.1495
641.253	69.1493
641.413	69.1490
641.574	69.1488
641.727	69.1486
641.874	69.1483
642.022	69.1480
642.172	69.1479
642.318	69.1478
642.454	69.1476
642.582	69.1473
642.712	69.1472
642.853	69.1470
643.001	69.1467
643.155	69.1465
643.307	69.1462
643.457	69.1459
643.585	69.1457
643.701	69.1455
643.813	69.1452
643.932	69.1450
644.062	69.1447
644.202	69.1444
644.355	69.1441
644.515	69.1439
644.676	69.1437
644.835	69.1436
644.988	69.1434
645.132	69.1432
645.262	69.1430
645.384	69.1429
645.513	69.1425
645.664	69.1422
645.835	69.1419
646.012	69.1416
646.182	69.1413
646.348	69.1411
646.513	69.1408
646.682	69.1406
646.854	69.1403
647.025	69.1399
647.195	69.1396
647.365	69.1393
647.536	69.1390
647.705	69.1389
647.875	69.1388
648.046	69.1387
648.215	69.1385
648.382	69.1383
648.547	69.1381
648.711	69.1378
648.871	69.1375
649.035	69.1374
649.202	69.1372
649.363	69.1370
649.517	69.1366
649.668	69.1364
649.821	69.1362
649.980	69.1360
650.143	69.1357
650.301	69.1355
650.454	69.1354
650.613	69.1352
650.771	69.1350
650.926	69.1348
651.072	69.1346
651.223	69.1344
651.393	69.1342
651.588	69.1340
651.800	69.1338
652.016	69.1336
652.231	69.1335
652.423	69.1334
652.590	69.1331
652.742	69.1329
652.902	69.1327
653.071	69.1325
653.245	69.1322
653.402	69.1319
653.533	69.1318
653.634	69.1316
653.722	69.1314
653.813	69.1311
653.915	69.1308
654.027	69.1306
654.143	69.1304
654.257	69.1300
654.374	69.1297
654.496	69.1296
654.629	69.1294
654.772	69.1293
654.922	69.1291
655.069	69.1289
655.215	69.1288
655.365	69.1287
655.516	69.1285
655.670	69.1283
655.831	69.1279
656.004	69.1276
656.195	69.1274
656.412	69.1271
656.646	69.1269
656.866	69.1267
657.054	69.1264
657.219	69.1261
657.393	69.1259
657.575	69.1257
657.748	69.1255
657.909	69.1253
658.078	69.1251
658.267	69.1249
658.476	69.1248
658.690	69.1246
658.899	69.1245
659.097	69.1243
659.274	69.1240
659.428	69.1238
659.564	69.1236
659.698	69.1233
659.848	69.1230
660.024	69.1228
660.222	69.1225
660.432	69.1223
660.639	69.1220
660.836	69.1217
661.021	69.1215
661.196	69.1212
661.365	69.1211
661.530	69.1209
661.691	69.1207
661.854	69.1209
662.020	69.1208
662.177	69.1205
662.317	69.1203
662.439	69.1201
662.559	69.1197
662.686	69.1196
662.821	69.1195
662.958	69.1192
663.098	69.1190
663.239	69.1187
663.383	69.1183
663.539	69.1180
663.716	69.1178
663.902	69.1175
664.080	69.1173
664.244	69.1173
664.411	69.1171
664.594	69.1169
664.794	69.1167
664.985	69.1165
665.167	69.1164
665.348	69.1162
665.542	69.1160
665.755	69.1159
665.983	69.1158
666.193	69.1156
666.361	69.1154
666.490	69.1152
666.602	69.1150
666.722	69.1148
666.858	69.1147
667.023	69.1145
667.212	69.1143
667.406	69.1140
667.588	69.1137
667.749	69.1134
667.896	69.1132
668.035	69.1130
668.169	69.1130
668.308	69.1129
668.458	69.1127
668.630	69.1124
668.835	69.1121
669.078	69.1118
669.351	69.1115
669.646	69.1114
669.942	69.1110
670.219	69.1109
670.472	69.1105
670.699	69.1102
670.913	69.1100
671.117	69.1099
671.320	69.1097
671.511	69.1096
671.688	69.1095
671.850	69.1094
672.006	69.1092
672.155	69.1090
672.304	69.1089
672.458	69.1088
672.619	69.1085
672.791	69.1084
672.978	69.1084
673.181	69.1083
673.392	69.1081
673.593	69.1078
673.777	69.1076
673.954	69.1072
674.142	69.1069
674.345	69.1066
674.558	69.1063
674.759	69.1061
674.935	69.1059
675.096	69.1057
675.256	69.1055
675.430	69.1054
675.609	69.1052
675.790	69.1049
675.969	69.1045
676.143	69.1041
676.312	69.1039
676.488	69.1038
676.673	69.1037
676.872	69.1036
677.086	69.1034
677.313	69.1032
677.545	69.1031
677.773	69.1032
677.993	69.1031
678.207	69.1028
678.420	69.1026
678.632	69.1024
678.846	69.1021
679.058	69.1019
679.265	69.1016
679.464	69.1014
679.653	69.1012
679.841	69.1008
680.030	69.1004
680.219	69.1000
680.403	69.0998
680.581	69.0995
680.759	69.0994
680.932	69.0993
681.105	69.0991
681.281	69.0989
681.466	69.0985
681.654	69.0981
681.847	69.0980
682.040	69.0979
682.230	69.0978
682.416	69.0976
682.599	69.0974
682.777	69.0972
682.951	69.0971
683.124	69.0969
683.302	69.0968
683.489	69.0966
683.682	69.0964
683.882	69.0962
684.083	69.0959
684.277	69.0957
684.455	69.0954
684.622	69.0953
684.790	69.0951
684.957	69.0950
685.111	69.0951
685.246	69.0952
685.380	69.0952
685.541	69.0952
685.745	69.0949
685.979	69.0945
686.199	69.0941
686.390	69.0937
686.563	69.0934
686.729	69.0933
686.897	69.0931
687.069	69.0929
687.235	69.0925
687.404	69.0920
687.594	69.0915
687.797	69.0913
687.987	69.0913
688.162	69.0912
688.329	69.0911
688.496	69.0910
688.668	69.0908
688.850	69.0907
689.036	69.0905
689.212	69.0903
689.377	69.0902
689.531	69.0900
689.689	69.0898
689.856	69.0896
690.023	69.0893
690.187	69.0891
690.344	69.0890
690.506	69.0888
690.677	69.0886
690.855	69.0885
691.035	69.0883
691.205	69.0881
691.361	69.0879
691.519	69.0877
691.684	69.0874
691.852	69.0871
692.018	69.0869
692.187	69.0867
692.354	69.0866
692.531	69.0863
692.719	69.0861
692.914	69.0860
693.113	69.0860
693.307	69.0859
693.490	69.0856
693.663	69.0852
693.832	69.0848
693.995	69.0846
694.153	69.0844
694.317	69.0842
694.499	69.0840
694.693	69.0837
694.887	69.0834
695.072	69.0832
695.242	69.0830
695.402	69.0827
695.562	69.0826
695.720	69.0824
695.878	69.0822
696.035	69.0820
696.197	69.0820
696.369	69.0819
696.554	69.0817
696.753	69.0815
696.957	69.0813
697.161	69.0810
697.360	69.0807
697.562	69.0806
697.765	69.0804
697.962	69.0802
698.152	69.0800
698.335	69.0797
698.513	69.0795
698.693	69.0792
698.882	69.0790
699.058	69.0790
699.219	69.0788
699.364	69.0786
699.502	69.0784
699.656	69.0783
699.836	69.0780
700.033	69.0778
700.234	69.0774
700.428	69.0771
700.609	69.0770
700.778	69.0769
700.944	69.0767
701.112	69.0766
701.288	69.0764
701.474	69.0763
701.661	69.0761
701.847	69.0760
702.041	69.0758
702.242	69.0756
702.444	69.0752
702.641	69.0748
702.834	69.0746
703.028	69.0745
703.221	69.0744
703.407	69.0743
703.580	69.0741
703.748	69.0740
703.920	69.0739
704.104	69.0737
704.300	69.0735
704.501	69.0732
704.701	69.0730
704.894	69.0728
705.080	69.0726
705.260	69.0724
705.438	69.0722
705.605	69.0719
705.760	69.0718
705.909	69.0716
706.053	69.0714
706.197	69.0712
706.337	69.0710
706.478	69.0710
706.625	69.0710
706.776	69.0708
706.930	69.0705
707.091	69.0703
707.248	69.0699
707.396	69.0696
707.551	69.0694
707.735	69.0693
707.947	69.0692
708.172	69.0689
708.395	69.0687
708.607	69.0685
708.810	69.0683
709.008	69.0681
709.198	69.0679
709.384	69.0678
709.570	69.0676
709.755	69.0674
709.934	69.0673
710.110	69.0672
710.285	69.0669
710.467	69.0667
710.657	69.0665
710.852	69.0662
711.045	69.0661
711.235	69.0661
711.431	69.0658
711.632	69.0657
711.828	69.0655
712.018	69.0653
712.208	69.0650
712.397	69.0647
712.590	69.0646
712.780	69.0644
712.963	69.0642
713.129	69.0639
713.278	69.0637
713.419	69.0634
713.557	69.0631
713.701	69.0629
713.847	69.0627
714.001	69.0625
714.158	69.0623
714.313	69.0622
714.473	69.0621
714.641	69.0618
714.816	69.0615
714.999	69.0612
715.195	69.0609
715.411	69.0606
715.630	69.0604
715.840	69.0603
716.052	69.0601
716.269	69.0599
716.476	69.0599
716.666	69.0599
716.852	69.0599
717.037	69.0597
717.206	69.0595
717.358	69.0593
717.507	69.0592
717.663	69.0590
717.832	69.0587
718.025	69.0585
718.232	69.0583
718.443	69.0581
718.659	69.0580
718.868	69.0578
719.057	69.0576
719.230	69.0573
719.400	69.0571
719.579	69.0568
719.759	69.0566
719.939	69.0564
720.120	69.0562
720.306	69.0560
720.503	69.0559
720.710	69.0558
720.920	69.0556
721.127	69.0554
721.329	69.0552
721.526	69.0550
721.719	69.0548
721.914	69.0546
722.105	69.0546
722.290	69.0543
722.465	69.0540
722.631	69.0537
722.784	69.0536
722.931	69.0534
723.078	69.0532
723.238	69.0530
723.406	69.0529
723.583	69.0528
723.766	69.0525
723.955	69.0524
724.147	69.0522
724.341	69.0520
724.533	69.0518
724.719	69.0515
724.902	69.0513
725.085	69.0510
725.273	69.0508
725.464	69.0506
725.657	69.0504
725.845	69.0503
726.025	69.0502
726.192	69.0500
726.354	69.0498
726.518	69.0497
726.689	69.0496
726.861	69.0494
727.028	69.0492
727.194	69.0491
727.364	69.0489
727.543	69.0487
727.729	69.0485
727.911	69.0481
728.079	69.0478
728.241	69.0475
728.402	69.0472
728.573	69.0470
728.746	69.0468
728.918	69.0467
729.101	69.0466
729.316	69.0464
729.538	69.0462
729.749	69.0460
729.951	69.0458
730.134	69.0457
730.299	69.0456
730.452	69.0454
730.606	69.0451
730.759	69.0448
730.913	69.0447
731.082	69.0444
731.274	69.0442
731.484	69.0440
731.695	69.0438
731.897	69.0436
732.094	69.0434
732.286	69.0432
732.471	69.0430
732.654	69.0427
732.830	69.0425
733.005	69.0421
733.184	69.0417
733.362	69.0416
733.543	69.0416
733.731	69.0416
733.927	69.0415
734.126	69.0412
734.325	69.0411
734.518	69.0409
734.699	69.0406
734.871	69.0404
735.029	69.0401
735.178	69.0398
735.328	69.0396
735.480	69.0394
735.633	69.0391
735.787	69.0389
735.948	69.0387
736.112	69.0386
736.271	69.0385
736.431	69.0383
736.597	69.0381
736.766	69.0379
736.927	69.0377
737.071	69.0375
737.213	69.0373
737.371	69.0373
737.537	69.0372
737.705	69.0369
737.883	69.0367
738.073	69.0365
738.271	69.0362
738.474	69.0359
738.669	69.0358
738.853	69.0357
739.035	69.0355
739.215	69.0354
739.382	69.0352
739.532	69.0350
739.668	69.0348
739.811	69.0346
739.961	69.0344
740.123	69.0343
740.296	69.0339
740.479	69.0337
740.668	69.0335
740.856	69.0334
741.043	69.0333
741.222	69.0330
741.395	69.0328
741.566	69.0324
741.733	69.0320
741.894	69.0318
742.061	69.0316
742.238	69.0314
742.424	69.0313
742.613	69.0311
742.802	69.0309
742.997	69.0307
743.192	69.0305
743.385	69.0303
743.577	69.0301
743.764	69.0301
743.948	69.0300
744.141	69.0299
744.343	69.0296
744.538	69.0294
744.720	69.0290
744.894	69.0288
745.064	69.0286
745.234	69.0283
745.402	69.0282
745.565	69.0282
745.723	69.0281
745.872	69.0277
746.013	69.0274
746.151	69.0272
746.285	69.0270
746.419	69.0267
746.549	69.0264
746.680	69.0261
746.816	69.0259
746.964	69.0256
747.123	69.0255
747.292	69.0254
747.464	69.0252
747.638	69.0252
747.820	69.0250
748.016	69.0247
748.220	69.0244
748.416	69.0242
748.607	69.0242
748.787	69.0241
748.940	69.0241
749.066	69.0239
749.174	69.0237
749.297	69.0235
749.457	69.0232
749.645	69.0226
749.841	69.0223
750.022	69.0223
750.174	69.0222
750.302	69.0220
750.425	69.0219
750.550	69.0217
750.688	69.0216
750.847	69.0214
751.029	69.0213
751.220	69.0210
751.404	69.0206
751.577	69.0203
751.733	69.0201
751.873	69.0198
751.997	69.0196
752.124	69.0194
752.267	69.0193
752.423	69.0192
752.592	69.0189
752.784	69.0187
752.995	69.0185
753.219	69.0185
753.444	69.0184
753.663	69.0182
753.871	69.0180
754.062	69.0178
754.241	69.0176
754.410	69.0173
754.577	69.0171
754.751	69.0169
754.931	69.0166
755.118	69.0164
755.311	69.0162
755.502	69.0159
755.684	69.0157
755.862	69.0154
756.047	69.0151
756.238	69.0147
756.424	69.0146
756.600	69.0145
756.766	69.0143
756.927	69.0141
757.087	69.0140
757.257	69.0138
757.441	69.0135
757.625	69.0133
757.801	69.0132
757.971	69.0130
758.140	69.0127
758.305	69.0124
758.470	69.0121
758.637	69.0117
758.805	69.0115
758.970	69.0113
759.141	69.0110
759.313	69.0108
759.483	69.0107
759.655	69.0105
759.829	69.0103
760.010	69.0101
760.200	69.0099
760.391	69.0096
760.587	69.0093
760.783	69.0091
760.973	69.0091
761.155	69.0090
761.330	69.0087
761.496	69.0085
761.657	69.0082
761.806	69.0080
761.947	69.0077
762.078	69.0074
762.211	69.0071
762.359	69.0068
762.514	69.0066
762.667	69.0065
762.817	69.0063
762.955	69.0062
763.096	69.0060
763.265	69.0057
763.458	69.0053
763.670	69.0050
763.877	69.0047
764.060	69.0045
764.222	69.0044
764.382	69.0043
764.559	69.0041
764.760	69.0040
764.965	69.0040
765.169	69.0037
765.367	69.0035
765.551	69.0032
765.730	69.0029
765.902	69.0026
766.070	69.0024
766.239	69.0021
766.423	69.0018
766.628	69.0015
766.836	69.0014
767.029	69.0014
767.221	69.0013
767.409	69.0011
767.582	69.0009
767.734	69.0008
767.868	69.0005
767.995	69.0002
768.133	68.9999
768.283	68.9995
768.438	68.9993
768.594	68.9990
768.746	68.9986
768.880	68.9984
769.000	68.9983
769.111	68.9981
769.229	68.9981
769.360	68.9980
769.502	68.9978
769.656	68.9975
769.828	68.9973
770.014	68.9972
770.207	68.9969
770.400	68.9967
770.592	68.9963
770.782	68.9960
770.959	68.9956
771.122	68.9953
771.270	68.9951
771.414	68.9949
771.581	68.9948
771.777	68.9946
771.988	68.9943
772.208	68.9940
772.427	68.9938
772.632	68.9934
772.822	68.9932
773.010	68.9929
773.197	68.9926
773.383	68.9924
773.568	68.9923
773.750	68.9920
773.932	68.9917
774.109	68.9916
774.280	68.9915
774.444	68.9913
774.610	68.9910
774.783	68.9907
774.958	68.9904
775.130	68.9900
775.304	68.9895
775.489	68.9892
775.672	68.9889
775.844	68.9888
776.004	68.9887
776.162	68.9887
776.312	68.9885
776.445	68.9883
776.570	68.9880
776.696	68.9877
776.830	68.9874
776.967	68.9873
777.106	68.9871
777.250	68.9869
777.410	68.9865
777.586	68.9862
777.782	68.9859
777.991	68.9857
778.187	68.9853
778.374	68.9849
778.558	68.9847
778.732	68.9845
778.885	68.9843
779.018	68.9841
779.154	68.9837
779.311	68.9834
779.490	68.9831
779.683	68.9829
779.883	68.9828
780.087	68.9827
780.293	68.9825
780.500	68.9823
780.702	68.9821
780.898	68.9820
781.084	68.9818
781.257	68.9815
781.421	68.9812
781.571	68.9808
781.699	68.9806
781.813	68.9803
781.933	68.9799
782.075	68.9796
782.231	68.9791
782.382	68.9787
782.524	68.9783
782.664	68.9780
782.790	68.9778
782.902	68.9777
783.020	68.9776
783.170	68.9774
783.355	68.9771
783.571	68.9768
783.797	68.9763
784.037	68.9758
784.291	68.9754
784.527	68.9753
784.739	68.9753
784.923	68.9753
785.094	68.9751
785.283	68.9750
785.509	68.9747
785.749	68.9744
785.960	68.9742
786.127	68.9739
786.264	68.9735
786.392	68.9732
786.524	68.9730
786.664	68.9727
786.828	68.9724
787.025	68.9721
787.237	68.9718
787.449	68.9716
787.658	68.9713
787.852	68.9710
788.019	68.9707
788.165	68.9703
788.303	68.9700
788.445	68.9697
788.596	68.9695
788.764	68.9692
788.957	68.9690
789.160	68.9688
789.351	68.9686
789.503	68.9683
789.618	68.9681
789.716	68.9678
789.818	68.9676
789.942	68.9673
790.113	68.9671
790.335	68.9668
790.580	68.9664
790.830	68.9661
791.074	68.9658
791.295	68.9657
791.490	68.9655
791.670	68.9650
791.848	68.9645
792.031	68.9640
792.221	68.9638
792.410	68.9637
792.597	68.9635
792.780	68.9633
792.956	68.9630
793.123	68.9628
793.281	68.9626
793.437	68.9624
793.591	68.9622
793.745	68.9619
793.913	68.9616
794.094	68.9612
794.279	68.9607
794.463	68.9602
794.645	68.9597
794.826	68.9594
795.005	68.9592
795.172	68.9590
795.341	68.9588
795.522	68.9587
795.699	68.9585
795.871	68.9582
796.041	68.9578
796.215	68.9575
796.387	68.9573
796.558	68.9570
796.736	68.9567
796.917	68.9565
797.085	68.9562
797.239	68.9560
797.374	68.9556
797.502	68.9552
797.637	68.9549
797.789	68.9546
797.965	68.9542
798.163	68.9538
798.366	68.9534
798.566	68.9532
798.757	68.9530
798.942	68.9526
799.131	68.9523
799.325	68.9520
799.517	68.9517
799.693	68.9515
799.849	68.9511
799.878	68.9511
800.015	68.9509
800.143	68.9506
800.257	68.9504
800.359	68.9501
800.453	68.9498
800.535	68.9494
800.593	68.9491
800.620	68.9488
800.640	68.9484
800.654	68.9482
800.656	68.9479
800.640	68.9476
800.610	68.9473
800.597	68.9470
800.614	68.9468
800.655	68.9464
800.703	68.9460
800.747	68.9456
800.785	68.9452
800.820	68.9449
800.855	68.9447
800.888	68.9445
800.915	68.9442
800.941	68.9441
800.971	68.9439
800.995	68.9436
800.998	68.9432
800.975	68.9430
800.938	68.9427
800.912	68.9424
800.907	68.9420
800.917	68.9417
800.929	68.9415
800.914	68.9411
800.868	68.9409
800.796	68.9407
800.708	68.9403
800.633	68.9399
800.571	68.9394
800.511	68.9391
800.449	68.9387
800.389	68.9385
800.316	68.9383
800.234	68.9381
800.192	68.9381
800.217	68.9379
800.296	68.9376
800.397	68.9374
800.487	68.9371
800.530	68.9367
800.530	68.9364
800.522	68.9360
800.518	68.9356
800.511	68.9353
800.501	68.9352
800.496	68.9349
800.484	68.9347
800.462	68.9344
800.447	68.9342
800.451	68.9340
800.469	68.9338
800.493	68.9335
800.505	68.9331
800.490	68.9328
800.453	68.9326
800.420	68.9323
800.407	68.9321
800.411	68.9318
800.431	68.9315
800.466	68.9312
800.499	68.9309
800.515	68.9306
800.513	68.9302
800.505	68.9299
800.497	68.9295
800.490	68.9293
800.484	68.9291
800.476	68.9290
800.477	68.9288
800.492	68.9285
800.511	68.9281
800.529	68.9278
800.542	68.9274
800.554	68.9271
800.569	68.9267
800.584	68.9265
800.589	68.9262
800.584	68.9258
800.574	68.9254
800.558	68.9251
800.536	68.9248
800.512	68.9246
800.493	68.9243
800.484	68.9240
800.483	68.9238
800.478	68.9236
800.477	68.9234
800.489	68.9230
800.500	68.9228
800.493	68.9224
800.465	68.9221
800.425	68.9219
800.379	68.9218
800.334	68.9216
800.297	68.9214
800.277	68.9212
800.275	68.9209
800.274	68.9205
800.262	68.9202
800.248	68.9200
800.246	68.9197
800.260	68.9195
800.282	68.9192
800.309	68.9190
800.338	68.9187
800.357	68.9184
800.362	68.9181
800.357	68.9177
800.341	68.9174
800.309	68.9170
800.270	68.9169
800.239	68.9166
800.221	68.9165
800.209	68.9162
800.196	68.9160
800.178	68.9159
800.154	68.9158
800.129	68.9155
800.098	68.9152
800.063	68.9149
800.034	68.9146
800.003	68.9143
799.966	68.9140
799.918	68.9137
799.863	68.9133
799.816	68.9130
799.793	68.9127
799.802	68.9124
799.834	68.9120
799.871	68.9118
799.912	68.9115
799.958	68.9113
800.012	68.9111
800.059	68.9108
800.095	68.9106
800.120	68.9104
800.143	68.9101
800.167	68.9099
800.192	68.9096
800.223	68.9093
800.253	68.9092
800.268	68.9088
800.277	68.9086
800.281	68.9083
800.275	68.9080
800.259	68.9078
800.237	68.9074
800.216	68.9071
800.202	68.9066
800.203	68.9063
800.214	68.9061
800.230	68.9058
800.238	68.9055
800.223	68.9052
800.197	68.9049
800.174	68.9046
800.171	68.9042
800.189	68.9040
800.219	68.9037
800.237	68.9034
800.239	68.9033
800.229	68.9031
800.223	68.9029
800.226	68.9026
800.223	68.9023
800.214	68.9020
800.207	68.9016
800.197	68.9012
800.178	68.9008
800.148	68.9004
800.112	68.9001
800.089	68.8999
800.082	68.8996
800.085	68.8994
800.099	68.8992
800.108	68.8989
800.114	68.8987
800.124	68.8986
800.132	68.8984
800.137	68.8981
800.140	68.8980
800.143	68.8978
800.148	68.8976
800.158	68.8974
800.177	68.8971
800.199	68.8968
800.230	68.8964
800.269	68.8962
800.296	68.8960
800.306	68.8958
800.303	68.8956
800.284	68.8952
800.262	68.8949
800.233	68.8947
800.202	68.8943
800.177	68.8940
800.159	68.8936
800.150	68.8933
800.145	68.8930
800.136	68.8928
800.117	68.8925
800.090	68.8922
800.065	68.8920
800.046	68.8918
800.033	68.8915
800.036	68.8912
800.061	68.8909
800.103	68.8907
800.155	68.8904
800.230	68.8902
800.312	68.8898
800.373	68.8896
800.423	68.8893
800.479	68.8890
800.541	68.8888
800.599	68.8885
800.650	68.8881
800.690	68.8878
800.717	68.8877
800.737	68.8875
800.757	68.8872
800.760	68.8870
800.755	68.8867
800.741	68.8865
800.724	68.8862
800.710	68.8860
800.694	68.8857
800.666	68.8856
800.623	68.8855
800.571	68.8853
800.523	68.8849
800.480	68.8845
800.441	68.8839
800.413	68.8835
800.387	68.8832
800.348	68.8829
800.310	68.8827
800.280	68.8825
800.231	68.8822
800.137	68.8820
800.023	68.8817
799.924	68.8813
799.842	68.8811
799.778	68.8809
799.734	68.8807
799.713	68.8806
799.712	68.8806
799.692	68.8804
799.644	68.8802
799.598	68.8797
799.601	68.8793
799.637	68.8788
799.667	68.8784
799.688	68.8781
799.704	68.8778
799.710	68.8775
799.703	68.8773
799.709	68.8770
799.736	68.8768
799.783	68.8765
799.848	68.8763
799.911	68.8760
799.957	68.8758
799.989	68.8757
800.014	68.8755
800.042	68.8752
800.061	68.8749
800.061	68.8747
800.053	68.8745
800.067	68.8741
800.099	68.8738
800.126	68.8736
800.136	68.8734
800.139	68.8732
800.154	68.8727
800.184	68.8722
800.212	68.8720
800.225	68.8717
800.214	68.8714
800.198	68.8711
800.192	68.8708
800.196	68.8706
800.203	68.8703
800.205	68.8701
800.205	68.8699
800.209	68.8696
800.217	68.8693
800.227	68.8690
800.235	68.8688
800.237	68.8685
800.237	68.8682
800.250	68.8679
800.279	68.8676
800.321	68.8674
800.369	68.8671
800.418	68.8669
800.448	68.8666
800.456	68.8663
800.459	68.8661
800.461	68.8658
800.457	68.8655
800.448	68.8653
800.427	68.8650
800.398	68.8647
800.369	68.8645
800.346	68.8641
800.339	68.8639
800.344	68.8636
800.355	68.8634
800.373	68.8631
800.399	68.8629
800.432	68.8627
800.462	68.8624
800.475	68.8621
800.470	68.8617
800.446	68.8614
800.410	68.8612
800.360	68.8609
800.319	68.8606
800.307	68.8603
800.319	68.8600
800.335	68.8597
800.338	68.8594
800.322	68.8592
800.292	68.8589
800.255	68.8586
800.231	68.8583
800.237	68.8581
800.270	68.8579
800.301	68.8577
800.307	68.8574
800.288	68.8569
800.262	68.8567
800.248	68.8564
800.251	68.8561
800.279	68.8559
800.315	68.8556
800.346	68.8554
800.364	68.8552
800.371	68.8550
800.350	68.8547
800.307	68.8544
800.270	68.8540
800.248	68.8537
800.254	68.8534
800.285	68.8532
800.323	68.8529
800.348	68.8526
800.357	68.8522
800.349	68.8520
800.333	68.8518
800.315	68.8515
800.291	68.8511
800.274	68.8508
800.269	68.8505
800.268	68.8503
800.274	68.8501
800.267	68.8499
800.246	68.8496
800.211	68.8494
800.166	68.8491
800.122	68.8489
800.091	68.8486
800.074	68.8485
800.067	68.8484
800.066	68.8480
800.076	68.8476
800.091	68.8471
800.110	68.8466
800.140	68.8462
800.185	68.8461
800.233	68.8459
800.267	68.8458
800.296	68.8455
800.326	68.8453
800.354	68.8450
800.371	68.8447
800.375	68.8444
800.373	68.8442
800.370	68.8438
800.370	68.8436
800.369	68.8433
800.360	68.8431
800.344	68.8429
800.327	68.8428
800.308	68.8425
800.282	68.8422
800.250	68.8417
800.220	68.8413
800.197	68.8410
800.170	68.8408
800.143	68.8406
800.130	68.8404
800.133	68.8402
800.142	68.8399
800.143	68.8397
800.131	68.8394
800.119	68.8391
800.118	68.8387
800.136	68.8384
800.170	68.8379
800.196	68.8376
800.190	68.8373
800.174	68.8370
800.182	68.8368
800.213	68.8366
800.260	68.8364
800.324	68.8362
800.401	68.8360
800.480	68.8359
800.549	68.8356
800.601	68.8354
800.631	68.8350
800.637	68.8346
800.612	68.8342
800.557	68.8339
800.501	68.8335
800.442	68.8332
800.383	68.8329
800.340	68.8327
800.316	68.8324
800.313	68.8321
800.321	68.8319
800.334	68.8317
800.351	68.8314
800.365	68.8312
800.378	68.8310
800.388	68.8307
800.375	68.8304
800.337	68.8301
800.288	68.8297
800.256	68.8295
800.256	68.8291
800.280	68.8288
800.306	68.8285
800.316	68.8283
800.298	68.8281
800.257	68.8279
800.208	68.8276
800.153	68.8271
800.093	68.8267
800.052	68.8264
800.048	68.8262
800.072	68.8260
800.099	68.8257
800.113	68.8254
800.114	68.8251
800.101	68.8249
800.079	68.8246
800.062	68.8244
800.060	68.8241
800.066	68.8238
800.070	68.8236
800.067	68.8233
800.063	68.8231
800.068	68.8227
800.078	68.8224
800.086	68.8221
800.091	68.8219
800.093	68.8216
800.079	68.8213
800.038	68.8210
799.983	68.8208
799.932	68.8205
799.892	68.8202
799.853	68.8200
799.803	68.8198
799.735	68.8196
799.662	68.8193
799.622	68.8190
799.625	68.8188
799.653	68.8186
799.675	68.8183
799.689	68.8180
799.710	68.8178
799.753	68.8175
799.810	68.8172
799.875	68.8170
799.916	68.8167
799.926	68.8164
799.915	68.8160
799.886	68.8157
799.845	68.8155
799.823	68.8153
799.855	68.8150
799.924	68.8147
800.003	68.8145
800.069	68.8141
800.115	68.8139
800.149	68.8137
800.164	68.8135
800.148	68.8131
800.112	68.8128
800.077	68.8124
800.062	68.8121
800.076	68.8118
800.113	68.8115
800.150	68.8113
800.183	68.8112
800.209	68.8112
800.224	68.8109
800.224	68.8105
800.216	68.8101
800.220	68.8097
800.228	68.8095
800.227	68.8092
800.210	68.8090
800.185	68.8088
800.170	68.8086
800.179	68.8082
800.213	68.8077
800.256	68.8074
800.296	68.8071
800.324	68.8068
800.334	68.8066
800.338	68.8063
800.349	68.8060
800.367	68.8057
800.386	68.8052
800.393	68.8048
800.391	68.8045
800.391	68.8043
800.399	68.8042
800.413	68.8039
800.421	68.8037
800.412	68.8034
800.386	68.8032
800.354	68.8029
800.332	68.8026
800.320	68.8023
800.305	68.8021
800.275	68.8018
800.239	68.8015
800.208	68.8011
800.193	68.8008
800.198	68.8005
800.221	68.8003
800.251	68.8000
800.280	68.7997
800.294	68.7993
800.287	68.7991
800.264	68.7988
800.230	68.7984
800.202	68.7980
800.188	68.7978
800.196	68.7975
800.221	68.7972
800.242	68.7970
800.247	68.7967
800.238	68.7964
800.227	68.7961
800.227	68.7958
800.233	68.7955
800.244	68.7952
800.250	68.7948
800.250	68.7945
800.251	68.7943
800.258	68.7942
800.272	68.7940
800.298	68.7938
800.325	68.7935
800.347	68.7931
800.346	68.7928
800.330	68.7926
800.310	68.7924
800.284	68.7921
800.254	68.7919
800.220	68.7917
800.180	68.7914
800.138	68.7912
800.100	68.7909
800.072	68.7905
800.044	68.7900
800.011	68.7896
799.984	68.7893
799.975	68.7891
799.982	68.7888
800.003	68.7886
800.035	68.7884
800.077	68.7881
800.125	68.7879
800.172	68.7876
800.217	68.7873
800.252	68.7870
800.263	68.7867
800.248	68.7866
800.221	68.7865
800.200	68.7863
800.193	68.7861
800.191	68.7858
800.199	68.7855
800.222	68.7852
800.262	68.7848
800.303	68.7844
800.323	68.7841
800.313	68.7838
800.283	68.7836
800.252	68.7836
800.228	68.7833
800.208	68.7830
800.189	68.7827
800.171	68.7823
800.161	68.7820
800.167	68.7818
800.177	68.7814
800.180	68.7811
800.173	68.7808
800.165	68.7806
800.178	68.7803
800.206	68.7800
800.239	68.7797
800.264	68.7793
800.279	68.7789
800.281	68.7785
800.270	68.7780
800.255	68.7775
800.242	68.7769
800.235	68.7768
800.234	68.7767
800.234	68.7766
800.232	68.7765
800.224	68.7763
800.216	68.7761
800.206	68.7761
800.197	68.7759
800.190	68.7756
800.184	68.7753
800.172	68.7749
800.155	68.7746
800.134	68.7743
800.107	68.7738
800.073	68.7735
800.050	68.7731
800.038	68.7728
800.026	68.7725
800.018	68.7724
800.015	68.7721
800.015	68.7718
800.013	68.7718
800.011	68.7716
800.005	68.7713
799.992	68.7709
799.974	68.7705
799.960	68.7698
799.958	68.7693
799.963	68.7690
799.974	68.7689
799.976	68.7688
799.964	68.7685
799.944	68.7683
799.932	68.7681
799.939	68.7679
799.942	68.7676
799.924	68.7675
799.885	68.7673
799.844	68.7669
799.826	68.7667
799.839	68.7663
799.867	68.7661
799.893	68.7659
799.928	68.7656
799.960	68.7653
799.970	68.7648
799.969	68.7646
799.970	68.7643
799.967	68.7640
799.948	68.7637
799.929	68.7633
799.921	68.7628
799.922	68.7625
799.941	68.7623
799.959	68.7621
799.949	68.7619
799.924	68.7616
799.909	68.7613
799.906	68.7611
799.909	68.7608
799.919	68.7605
799.944	68.7603
799.980	68.7601
800.012	68.7598
800.035	68.7595
800.052	68.7593
800.062	68.7590
800.071	68.7588
800.084	68.7586
800.090	68.7584
800.092	68.7580
800.101	68.7576
800.111	68.7572
800.109	68.7568
800.088	68.7564
800.057	68.7560
800.038	68.7557
800.039	68.7555
800.054	68.7552
800.071	68.7551
800.083	68.7549
800.080	68.7547
800.064	68.7545
800.051	68.7543
800.045	68.7541
800.045	68.7538
800.059	68.7536
800.083	68.7534
800.108	68.7531
800.138	68.7527
800.160	68.7524
800.153	68.7520
800.135	68.7516
800.123	68.7513
800.114	68.7509
800.096	68.7507
800.060	68.7504
800.021	68.7501
800.006	68.7499
800.023	68.7498
800.048	68.7495
800.064	68.7492
800.075	68.7489
800.084	68.7486
800.098	68.7484
800.110	68.7479
800.116	68.7475
800.118	68.7471
800.120	68.7468
800.122	68.7467
800.131	68.7466
800.141	68.7464
800.159	68.7461
800.176	68.7458
800.185	68.7455
800.181	68.7451
800.166	68.7448
800.136	68.7445
800.075	68.7440
800.001	68.7436
799.935	68.7434
799.892	68.7432
799.866	68.7430
799.850	68.7427
799.839	68.7426
799.844	68.7425
799.875	68.7424
799.921	68.7422
799.953	68.7419
799.959	68.7417
799.944	68.7413
799.920	68.7409
799.913	68.7406
799.951	68.7403
800.022	68.7400
800.094	68.7397
800.148	68.7394
800.166	68.7390
800.157	68.7387
800.150	68.7383
800.152	68.7379
800.169	68.7377
800.193	68.7376
800.222	68.7374
800.242	68.7371
800.256	68.7367
800.276	68.7363
800.282	68.7359
800.275	68.7356
800.256	68.7354
800.221	68.7352
800.170	68.7350
800.106	68.7349
800.046	68.7347
799.991	68.7344
799.954	68.7341
799.952	68.7338
799.984	68.7336
800.033	68.7333
800.062	68.7330
800.066	68.7327
800.039	68.7324
799.994	68.7321
799.931	68.7318
799.856	68.7314
799.785	68.7310
799.731	68.7307
799.707	68.7304
799.723	68.7303
799.789	68.7303
799.868	68.7303
799.911	68.7299
799.920	68.7295
799.904	68.7290
799.860	68.7286
799.801	68.7283
799.741	68.7280
799.693	68.7278
799.664	68.7276
799.654	68.7273
799.669	68.7270
799.702	68.7267
799.736	68.7264
799.767	68.7261
799.795	68.7258
799.825	68.7255
799.856	68.7252
799.882	68.7250
799.897	68.7247
799.908	68.7244
799.917	68.7242
799.923	68.7239
799.921	68.7236
799.910	68.7233
799.897	68.7229
799.883	68.7225
799.867	68.7223
799.843	68.7220
799.822	68.7218
799.819	68.7216
799.828	68.7214
799.828	68.7211
799.823	68.7208
799.823	68.7206
799.830	68.7203
799.841	68.7200
799.850	68.7197
799.862	68.7194
799.899	68.7191
799.957	68.7188
800.015	68.7186
800.060	68.7182
800.074	68.7179
800.048	68.7176
799.999	68.7173
799.951	68.7171
799.911	68.7168
799.885	68.7166
799.868	68.7165
799.868	68.7162
799.887	68.7158
799.912	68.7153
799.927	68.7148
799.925	68.7145
799.918	68.7142
799.906	68.7140
799.894	68.7137
799.881	68.7135
799.859	68.7132
799.838	68.7129
799.825	68.7127
799.822	68.7125
799.821	68.7123
799.820	68.7120
799.817	68.7118
799.822	68.7114
799.831	68.7109
799.845	68.7104
799.860	68.7101
799.869	68.7099
799.855	68.7097
799.821	68.7095
799.779	68.7092
799.738	68.7089
799.705	68.7085
799.667	68.7082
799.615	68.7079
799.562	68.7076
799.527	68.7075
799.513	68.7074
799.509	68.7072
799.502	68.7070
799.491	68.7066
799.477	68.7062
799.459	68.7059
799.451	68.7056
799.456	68.7054
799.473	68.7051
799.499	68.7048
799.533	68.7045
799.558	68.7042
799.558	68.7039
799.523	68.7036
799.464	68.7033
799.404	68.7030
799.358	68.7027
799.323	68.7023
799.298	68.7021
799.289	68.7018
799.309	68.7015
799.359	68.7013
799.430	68.7012
