Filename:	D:\Users\Thermal_Users\LeBlanc\Ag2_8_31_16.tg1d

Temperature (°C)	Weight % (%)
26.199	99.9922
26.278	99.9985
26.366	100.0021
26.461	100.0089
26.561	100.0136
26.663	100.0150
26.762	100.0160
26.856	100.0204
26.942	100.0217
27.022	100.0211
27.094	100.0253
27.159	100.0257
27.217	100.0237
27.269	100.0158
27.315	100.0111
27.357	100.0069
27.395	99.9993
27.428	99.9961
27.459	99.9977
27.485	99.9999
27.509	100.0030
27.531	100.0035
27.551	100.0015
27.570	99.9994
27.586	99.9968
27.602	99.9950
27.616	99.9943
27.628	99.9943
27.640	99.9930
27.651	99.9946
27.661	99.9961
27.670	99.9956
27.678	99.9949
27.685	99.9945
27.693	99.9941
27.699	99.9936
27.705	99.9930
27.711	99.9928
27.717	99.9925
27.722	99.9924
27.726	99.9938
27.731	99.9987
27.734	100.0056
27.738	100.0074
27.742	100.0050
27.745	100.0038
27.748	100.0048
27.751	100.0076
27.754	100.0024
27.757	99.9994
27.759	99.9962
27.761	99.9942
27.764	99.9905
27.765	99.9873
27.767	99.9866
27.769	99.9863
27.770	99.9874
27.772	99.9885
27.773	99.9886
27.774	99.9880
27.776	99.9871
27.779	99.9867
27.790	99.9871
27.807	99.9881
27.834	99.9906
27.884	99.9924
28.054	99.9949
28.527	100.0038
29.232	100.0156
30.038	100.0255
30.867	100.0318
31.679	100.0349
32.450	100.0353
33.170	100.0337
33.833	100.0315
24.059	100.0308
16.529	100.0369
15.284	100.0328
17.039	100.0246
20.141	100.0211
23.770	100.0195
27.534	100.0199
31.245	100.0166
34.830	100.0120
38.258	100.0097
41.536	100.0050
44.674	100.0005
47.692	99.9973
50.601	99.9901
53.414	99.9790
56.154	99.9811
58.827	99.9841
61.436	99.9856
63.985	99.9851
66.480	99.9889
68.921	99.9904
71.314	99.9871
73.676	99.9823
76.002	99.9832
78.297	99.9861
80.564	99.9883
81.015	99.9878
83.236	99.9784
85.393	99.9670
87.436	99.9574
89.327	99.9519
91.041	99.9509
92.578	99.9481
93.951	99.9460
95.173	99.9443
96.269	99.9380
97.243	99.9276
98.120	99.9167
98.906	99.9078
99.619	99.9005
100.265	99.8931
100.858	99.8876
101.398	99.8828
101.892	99.8762
102.354	99.8665
102.781	99.8625
103.175	99.8562
103.545	99.8480
103.889	99.8415
104.216	99.8355
104.520	99.8285
104.802	99.8217
105.069	99.8133
105.315	99.8028
105.551	99.7977
105.774	99.7934
105.984	99.7886
106.180	99.7838
106.366	99.7824
106.543	99.7867
106.717	99.7921
106.887	99.7925
107.051	99.7778
107.207	99.7650
107.362	99.7552
107.500	99.7420
107.634	99.7337
107.761	99.7291
107.877	99.7181
107.991	99.7067
108.099	99.6970
108.199	99.6881
108.287	99.6799
108.376	99.6728
108.457	99.6668
108.532	99.6598
108.599	99.6521
108.659	99.6451
108.712	99.6370
108.758	99.6282
108.807	99.6226
108.852	99.6175
108.896	99.6110
108.936	99.6050
108.969	99.6000
109.003	99.5948
109.032	99.5895
109.063	99.5839
109.090	99.5781
109.116	99.5728
109.140	99.5670
109.166	99.5610
109.188	99.5549
109.218	99.5484
109.251	99.5401
109.279	99.5349
109.310	99.5305
109.345	99.5241
109.375	99.5159
109.401	99.5089
109.417	99.5029
109.417	99.4925
109.415	99.4809
109.408	99.4774
109.395	99.4750
109.379	99.4722
109.363	99.4682
109.351	99.4637
109.340	99.4588
109.334	99.4537
109.326	99.4486
109.325	99.4436
109.318	99.4339
109.318	99.4281
109.314	99.4230
109.314	99.4169
109.306	99.4136
109.295	99.4077
109.292	99.3985
109.290	99.3926
109.294	99.3884
109.300	99.3844
109.308	99.3801
109.317	99.3748
109.323	99.3690
109.326	99.3636
109.331	99.3577
109.334	99.3528
109.336	99.3461
109.344	99.3409
109.353	99.3362
109.361	99.3307
109.371	99.3257
109.379	99.3208
109.389	99.3159
109.397	99.3106
109.401	99.3055
109.413	99.3004
109.417	99.2957
109.420	99.2909
109.419	99.2855
109.417	99.2801
109.418	99.2746
109.421	99.2668
109.426	99.2609
109.428	99.2565
109.431	99.2519
109.440	99.2470
109.453	99.2418
109.467	99.2363
109.492	99.2305
109.520	99.2251
109.550	99.2191
109.576	99.2136
109.598	99.2082
109.617	99.2037
109.635	99.1995
109.656	99.1996
109.677	99.2017
109.695	99.1981
109.716	99.2061
109.736	99.2087
109.753	99.2042
109.765	99.2059
109.778	99.2036
109.791	99.1951
109.799	99.1926
109.803	99.1866
109.805	99.1797
109.806	99.1765
109.805	99.1769
109.805	99.1710
109.802	99.1602
109.799	99.1509
109.797	99.1442
109.800	99.1331
109.802	99.1228
109.803	99.1193
109.804	99.1235
109.804	99.1316
109.804	99.1351
109.806	99.1301
109.808	99.1262
109.814	99.1223
109.818	99.1075
109.822	99.0941
109.827	99.0853
109.832	99.0785
109.840	99.0675
109.847	99.0570
109.853	99.0480
109.858	99.0445
109.858	99.0450
109.858	99.0465
109.861	99.0404
109.863	99.0407
109.868	99.0334
109.875	99.0142
109.879	99.0021
109.884	99.0020
109.887	98.9957
109.891	98.9909
109.897	98.9848
109.900	98.9863
109.902	98.9869
109.903	98.9860
109.904	98.9837
109.907	98.9841
109.911	98.9762
109.917	98.9612
109.915	98.9518
109.925	98.9519
109.929	98.9443
109.932	98.9374
109.935	98.9321
109.936	98.9225
109.940	98.9158
109.938	98.9125
109.939	98.9143
109.939	98.9225
109.942	98.9262
109.942	98.9214
109.944	98.9102
109.946	98.9025
109.946	98.8925
109.948	98.8830
109.952	98.8743
109.953	98.8640
109.958	98.8575
109.955	98.8518
109.953	98.8478
109.950	98.8464
109.949	98.8523
109.946	98.8595
109.940	98.8645
109.937	98.8616
109.937	98.8515
109.937	98.8381
109.930	98.8278
109.931	98.8228
109.932	98.8190
109.932	98.8087
109.929	98.7966
109.931	98.7853
109.932	98.7732
109.936	98.7655
109.937	98.7755
109.938	98.7857
109.936	98.7841
109.936	98.7718
109.935	98.7580
109.936	98.7505
109.937	98.7565
109.938	98.7608
109.946	98.7555
109.956	98.7490
109.964	98.7422
109.964	98.7352
109.959	98.7305
109.953	98.7232
109.944	98.7161
109.941	98.7137
109.938	98.7121
109.929	98.7057
109.921	98.7062
109.906	98.7064
109.897	98.6982
109.889	98.6846
109.881	98.6722
109.875	98.6697
109.872	98.6738
109.870	98.6719
109.865	98.6737
109.860	98.6758
109.856	98.6758
109.857	98.6733
109.858	98.6683
109.858	98.6626
109.862	98.6554
109.863	98.6475
109.869	98.6379
109.867	98.6319
109.872	98.6277
109.868	98.6277
109.865	98.6281
109.861	98.6305
109.853	98.6253
109.844	98.6155
109.836	98.6113
109.829	98.6060
109.822	98.6027
109.814	98.6007
109.810	98.5931
109.807	98.5875
109.806	98.5818
109.803	98.5694
109.803	98.5600
109.802	98.5568
109.801	98.5580
109.801	98.5576
109.803	98.5545
109.803	98.5506
109.805	98.5465
109.805	98.5448
109.808	98.5396
109.809	98.5354
109.813	98.5241
109.808	98.5159
109.810	98.5236
109.814	98.5275
109.817	98.5242
109.815	98.5191
109.814	98.5164
109.813	98.5114
109.817	98.5054
109.806	98.5020
109.798	98.5018
109.791	98.5011
109.787	98.4977
109.784	98.4943
109.782	98.4899
109.779	98.4808
109.776	98.4730
109.771	98.4672
109.770	98.4645
109.771	98.4591
109.774	98.4536
109.775	98.4550
109.778	98.4556
109.781	98.4493
109.779	98.4414
109.774	98.4389
109.781	98.4349
109.778	98.4303
109.780	98.4210
109.778	98.4126
109.769	98.4105
109.761	98.4153
109.759	98.4166
109.759	98.4116
109.761	98.4029
109.752	98.3957
109.752	98.3917
109.755	98.3868
109.750	98.3840
109.755	98.3766
109.757	98.3756
109.759	98.3736
109.760	98.3748
109.752	98.3739
109.753	98.3734
109.757	98.3753
109.754	98.3734
109.759	98.3667
109.760	98.3611
109.749	98.3533
109.748	98.3515
109.744	98.3474
109.744	98.3429
109.744	98.3388
109.738	98.3355
109.740	98.3309
109.741	98.3202
109.731	98.3108
109.733	98.3051
109.726	98.3073
109.716	98.3070
109.713	98.3068
109.706	98.3093
109.705	98.3062
109.704	98.2985
109.692	98.2916
109.691	98.2875
109.682	98.2825
109.680	98.2774
109.679	98.2744
109.667	98.2720
109.655	98.2654
109.643	98.2628
109.631	98.2620
109.613	98.2670
109.595	98.2653
109.578	98.2609
109.561	98.2581
109.548	98.2562
109.536	98.2548
109.527	98.2523
109.523	98.2461
109.525	98.2420
109.527	98.2368
109.531	98.2350
109.534	98.2320
109.530	98.2264
109.534	98.2253
109.538	98.2196
109.532	98.2139
109.534	98.2102
109.532	98.2071
109.533	98.2004
109.534	98.1952
109.537	98.1919
109.540	98.1901
109.541	98.1895
109.545	98.1843
109.553	98.1785
109.555	98.1729
109.553	98.1660
109.561	98.1650
109.561	98.1649
109.556	98.1655
109.561	98.1651
109.562	98.1637
109.564	98.1630
109.557	98.1601
109.560	98.1539
109.557	98.1486
109.553	98.1448
109.547	98.1436
109.543	98.1409
109.543	98.1368
109.537	98.1350
109.527	98.1303
109.531	98.1237
109.527	98.1200
109.515	98.1193
109.515	98.1207
109.507	98.1238
109.501	98.1251
109.496	98.1261
109.490	98.1223
109.491	98.1138
109.491	98.1099
109.486	98.1016
109.486	98.0966
109.480	98.0924
109.481	98.0890
109.482	98.0845
109.481	98.0812
109.480	98.0766
109.477	98.0763
109.475	98.0754
109.474	98.0742
109.468	98.0733
109.470	98.0720
109.464	98.0661
109.454	98.0618
109.450	98.0566
109.451	98.0540
109.443	98.0498
109.444	98.0469
109.441	98.0477
109.436	98.0463
109.434	98.0471
109.430	98.0486
109.429	98.0445
109.429	98.0384
109.432	98.0324
109.424	98.0244
109.424	98.0206
109.422	98.0191
109.422	98.0175
109.426	98.0122
109.436	98.0080
109.443	98.0062
109.436	98.0020
109.434	97.9977
109.431	97.9923
109.427	97.9918
109.417	97.9916
109.419	97.9889
109.417	97.9874
109.413	97.9832
109.409	97.9781
109.412	97.9746
109.416	97.9704
109.412	97.9654
109.413	97.9622
109.407	97.9602
109.403	97.9574
109.403	97.9571
109.404	97.9582
109.407	97.9571
109.402	97.9552
109.404	97.9521
109.403	97.9468
109.401	97.9401
109.401	97.9315
109.390	97.9270
109.391	97.9256
109.384	97.9250
109.386	97.9228
109.386	97.9235
109.386	97.9213
109.389	97.9180
109.393	97.9153
109.405	97.9125
109.404	97.9127
109.414	97.9120
109.409	97.9069
109.421	97.9013
109.419	97.8984
109.419	97.8962
109.410	97.8948
109.416	97.8920
109.408	97.8887
109.412	97.8862
109.411	97.8837
109.411	97.8830
109.411	97.8799
109.416	97.8737
109.420	97.8697
109.416	97.8626
109.415	97.8571
109.422	97.8537
109.427	97.8534
109.436	97.8544
109.440	97.8523
109.440	97.8501
109.444	97.8482
109.448	97.8445
109.438	97.8342
109.432	97.8254
109.425	97.8199
109.415	97.8237
109.408	97.8238
109.409	97.8201
109.402	97.8180
109.395	97.8162
109.390	97.8155
109.392	97.8153
109.383	97.8138
109.381	97.8128
109.378	97.8035
109.365	97.7955
109.360	97.7908
109.345	97.7912
109.329	97.7929
109.317	97.7990
109.303	97.8023
109.292	97.8023
109.276	97.8057
109.266	97.8074
109.256	97.8028
109.244	97.7916
109.231	97.7855
109.225	97.7787
109.217	97.7728
109.208	97.7648
109.201	97.7614
109.201	97.7609
109.207	97.7626
109.211	97.7554
109.215	97.7500
109.213	97.7463
109.213	97.7470
109.222	97.7457
109.227	97.7441
109.229	97.7422
109.229	97.7364
109.236	97.7321
109.240	97.7317
109.241	97.7340
109.237	97.7328
109.242	97.7271
109.244	97.7219
109.250	97.7233
109.254	97.7194
109.256	97.7166
109.257	97.7152
109.253	97.7119
109.242	97.7079
109.234	97.7059
109.226	97.7019
109.219	97.6983
109.217	97.6970
109.220	97.6891
109.219	97.6806
109.222	97.6759
109.217	97.6726
109.214	97.6710
109.214	97.6693
109.211	97.6680
109.209	97.6683
109.209	97.6684
109.207	97.6707
109.204	97.6731
109.204	97.6723
109.201	97.6684
109.198	97.6663
109.188	97.6680
109.177	97.6682
109.173	97.6650
109.167	97.6625
109.155	97.6577
109.151	97.6507
109.146	97.6467
109.142	97.6430
109.130	97.6390
109.128	97.6366
109.126	97.6351
109.122	97.6342
109.121	97.6316
109.119	97.6308
109.113	97.6310
109.123	97.6301
109.111	97.6240
109.107	97.6184
109.103	97.6159
109.100	97.6163
109.096	97.6141
109.101	97.6099
109.102	97.6077
109.104	97.6065
109.105	97.6058
109.111	97.6038
109.112	97.5978
109.112	97.5909
109.115	97.5866
109.108	97.5853
109.114	97.5811
109.116	97.5774
109.116	97.5767
109.116	97.5751
109.120	97.5727
109.130	97.5722
109.131	97.5723
109.129	97.5707
109.143	97.5683
109.135	97.5626
109.139	97.5596
109.143	97.5588
109.139	97.5631
109.137	97.5618
109.146	97.5586
109.142	97.5544
109.133	97.5497
109.131	97.5460
109.132	97.5443
109.120	97.5408
109.113	97.5368
109.110	97.5348
109.109	97.5344
109.113	97.5310
109.115	97.5295
109.111	97.5306
109.120	97.5309
109.124	97.5269
109.120	97.5222
109.129	97.5187
109.123	97.5189
109.120	97.5211
109.121	97.5198
109.122	97.5157
109.121	97.5123
109.120	97.5093
109.122	97.5129
109.113	97.5130
109.117	97.5111
109.112	97.5093
109.117	97.5068
109.116	97.5047
109.109	97.5001
109.097	97.4976
109.097	97.4982
109.091	97.4944
109.085	97.4937
109.087	97.4906
109.088	97.4856
109.096	97.4809
109.102	97.4783
109.109	97.4774
109.114	97.4718
109.122	97.4703
109.132	97.4695
109.140	97.4665
109.151	97.4673
109.162	97.4652
109.168	97.4604
109.174	97.4590
109.181	97.4549
109.188	97.4517
109.199	97.4510
109.208	97.4544
109.211	97.4530
109.216	97.4506
109.218	97.4516
109.215	97.4487
109.204	97.4460
109.189	97.4412
109.174	97.4360
109.166	97.4361
109.156	97.4330
109.151	97.4331
109.150	97.4320
109.151	97.4306
109.156	97.4322
109.159	97.4334
109.166	97.4310
109.169	97.4260
109.167	97.4263
109.167	97.4257
109.168	97.4212
109.167	97.4161
109.166	97.4111
109.178	97.4086
109.183	97.4081
109.185	97.4057
109.187	97.4031
109.193	97.3969
109.200	97.3920
109.204	97.3902
109.205	97.3914
109.210	97.3876
109.214	97.3846
109.215	97.3831
109.213	97.3821
109.215	97.3804
109.208	97.3759
109.208	97.3745
109.204	97.3741
109.202	97.3754
109.201	97.3746
109.198	97.3747
109.195	97.3776
109.198	97.3759
109.197	97.3724
109.203	97.3684
109.202	97.3618
109.209	97.3547
109.211	97.3510
109.217	97.3489
109.218	97.3487
109.222	97.3485
109.218	97.3513
109.218	97.3546
109.219	97.3516
109.226	97.3525
109.228	97.3532
109.228	97.3499
109.228	97.3480
109.229	97.3442
109.225	97.3399
109.226	97.3363
109.223	97.3355
109.215	97.3339
109.208	97.3334
109.201	97.3316
109.199	97.3330
109.199	97.3372
109.193	97.3360
109.192	97.3300
109.194	97.3297
109.189	97.3292
109.185	97.3277
109.183	97.3261
109.183	97.3229
109.180	97.3204
109.173	97.3189
109.166	97.3144
109.161	97.3192
109.150	97.3198
109.147	97.3143
109.153	97.3100
109.154	97.3049
109.155	97.2966
109.162	97.2906
109.166	97.2879
109.164	97.2874
109.156	97.2874
109.155	97.2833
109.145	97.2798
109.129	97.2740
109.121	97.2707
109.119	97.2717
109.110	97.2743
109.107	97.2840
109.107	97.2897
109.113	97.2840
109.122	97.2763
109.129	97.2709
109.137	97.2686
109.144	97.2750
109.148	97.2764
109.154	97.2720
109.160	97.2671
109.164	97.2638
109.172	97.2684
109.172	97.2682
109.179	97.2633
109.183	97.2644
109.190	97.2635
109.196	97.2572
109.208	97.2493
109.215	97.2489
109.213	97.2527
109.212	97.2500
109.221	97.2430
109.234	97.2417
109.242	97.2399
109.251	97.2395
109.254	97.2386
109.246	97.2311
109.245	97.2242
109.248	97.2237
109.245	97.2254
109.240	97.2230
109.248	97.2168
109.246	97.2149
109.241	97.2139
109.236	97.2136
109.239	97.2138
109.238	97.2128
109.234	97.2151
109.232	97.2227
109.231	97.2244
109.234	97.2197
109.232	97.2103
109.234	97.2016
109.240	97.2002
109.243	97.1979
109.248	97.2012
109.253	97.2036
109.250	97.2002
109.252	97.1956
109.249	97.1904
109.254	97.1882
109.251	97.1831
109.249	97.1817
109.247	97.1826
109.239	97.1794
109.225	97.1739
109.219	97.1793
109.223	97.1837
109.219	97.1816
109.212	97.1754
109.210	97.1712
109.208	97.1659
109.206	97.1657
109.206	97.1647
109.201	97.1630
109.200	97.1611
109.199	97.1622
109.195	97.1675
109.190	97.1658
109.186	97.1600
109.187	97.1545
109.194	97.1502
109.192	97.1488
109.191	97.1487
109.191	97.1463
109.192	97.1435
109.195	97.1432
109.193	97.1456
109.192	97.1508
109.190	97.1502
109.189	97.1430
109.187	97.1389
109.186	97.1380
109.183	97.1362
109.182	97.1350
109.196	97.1345
109.205	97.1312
109.208	97.1260
109.211	97.1200
109.214	97.1162
109.214	97.1132
109.217	97.1095
109.223	97.1068
109.221	97.1109
109.228	97.1077
109.237	97.1084
109.239	97.1123
109.242	97.1165
109.244	97.1249
109.243	97.1303
109.238	97.1276
109.235	97.1223
109.237	97.1212
109.237	97.1196
109.243	97.1130
109.243	97.1084
109.247	97.1052
109.247	97.0976
109.251	97.0937
109.252	97.0928
109.255	97.0881
109.258	97.0841
109.264	97.0787
109.262	97.0797
109.262	97.0782
109.262	97.0788
109.272	97.0763
109.279	97.0767
109.269	97.0774
109.265	97.0741
109.262	97.0718
109.262	97.0704
109.262	97.0702
109.267	97.0682
109.270	97.0653
109.274	97.0649
109.277	97.0644
109.278	97.0630
109.278	97.0645
109.281	97.0670
109.284	97.0649
109.283	97.0684
109.285	97.0659
109.292	97.0581
109.292	97.0542
109.299	97.0563
109.288	97.0637
109.284	97.0592
109.283	97.0521
109.283	97.0503
109.277	97.0462
109.272	97.0421
109.276	97.0398
109.264	97.0399
109.257	97.0380
109.255	97.0347
109.251	97.0331
109.250	97.0317
109.249	97.0342
109.249	97.0334
109.254	97.0315
109.257	97.0400
109.291	97.0413
109.381	97.0447
109.539	97.0423
109.798	97.0372
110.192	97.0352
110.726	97.0327
111.407	97.0315
112.214	97.0222
113.143	97.0161
114.174	97.0118
115.294	97.0099
116.484	97.0133
117.740	97.0175
119.053	97.0156
120.423	97.0163
121.834	97.0246
123.283	97.0271
124.769	97.0248
126.286	97.0206
127.833	97.0160
129.402	97.0128
130.988	97.0093
132.589	97.0085
134.204	97.0025
135.837	96.9969
137.489	96.9943
139.160	96.9897
140.844	96.9879
142.541	96.9835
144.247	96.9755
145.964	96.9683
147.686	96.9633
149.419	96.9590
151.156	96.9535
152.893	96.9513
154.627	96.9461
156.352	96.9387
158.071	96.9336
159.781	96.9299
161.484	96.9269
163.178	96.9205
164.864	96.9125
166.542	96.9015
168.216	96.8947
169.887	96.8877
171.550	96.8812
173.206	96.8711
174.854	96.8578
176.506	96.8441
178.163	96.8391
179.824	96.8313
181.491	96.8225
183.162	96.8151
184.841	96.8069
186.525	96.7982
188.210	96.7875
189.897	96.7768
191.576	96.7642
193.209	96.7488
194.750	96.7329
196.155	96.7126
197.401	96.7014
198.489	96.6896
199.434	96.6730
200.253	96.6543
200.964	96.6386
201.590	96.6246
202.146	96.6099
202.640	96.5921
203.082	96.5740
203.477	96.5550
203.837	96.5348
204.166	96.5190
204.470	96.5041
204.746	96.4889
205.005	96.4697
205.244	96.4512
205.470	96.4354
205.686	96.4178
205.890	96.4057
206.084	96.3877
206.267	96.3722
206.439	96.3609
206.600	96.3477
206.756	96.3338
206.905	96.3172
207.047	96.3057
207.181	96.2947
207.308	96.2810
207.424	96.2597
207.531	96.2419
207.630	96.2290
207.725	96.2201
207.813	96.2096
207.900	96.1987
207.985	96.1861
208.064	96.1735
208.144	96.1629
208.220	96.1498
208.295	96.1323
208.367	96.1161
208.433	96.1031
208.494	96.0907
208.551	96.0777
208.603	96.0677
208.653	96.0596
208.701	96.0464
208.746	96.0491
208.790	96.0589
208.827	96.0545
208.864	96.0357
208.898	96.0187
208.930	96.0041
208.962	95.9875
208.992	95.9706
209.025	95.9554
209.061	95.9419
209.099	95.9315
209.135	95.9265
209.169	95.9193
209.195	95.9061
209.216	95.8966
209.235	95.8864
209.253	95.8771
209.270	95.8742
209.290	95.8709
209.314	95.8670
209.341	95.8587
209.376	95.8495
209.414	95.8402
209.454	95.8334
209.490	95.8251
209.524	95.8139
209.551	95.8075
209.574	95.8021
209.590	95.7962
209.602	95.7869
209.613	95.7747
209.619	95.7650
209.624	95.7583
209.633	95.7526
209.642	95.7468
209.648	95.7368
209.652	95.7266
209.657	95.7173
209.664	95.7106
209.669	95.7066
209.673	95.6967
209.678	95.6852
209.679	95.6785
209.683	95.6721
209.684	95.6653
209.685	95.6619
209.687	95.6597
209.687	95.6535
209.687	95.6481
209.686	95.6434
209.686	95.6374
209.688	95.6284
209.692	95.6244
209.705	95.6200
209.721	95.6116
209.739	95.6008
209.755	95.5878
209.767	95.5826
209.779	95.5797
209.786	95.5759
209.790	95.5726
209.793	95.5671
209.797	95.5653
209.802	95.5584
209.810	95.5533
209.817	95.5480
209.821	95.5461
209.823	95.5430
209.823	95.5384
209.823	95.5325
209.822	95.5238
209.816	95.5173
209.809	95.5082
209.803	95.5030
209.799	95.4975
209.796	95.4892
209.786	95.4836
209.771	95.4754
209.752	95.4665
209.725	95.4601
209.698	95.4543
209.668	95.4546
209.648	95.4512
209.628	95.4445
209.614	95.4392
209.604	95.4302
209.598	95.4245
209.593	95.4169
209.590	95.4141
209.589	95.4083
209.589	95.3991
209.590	95.3932
209.592	95.3911
209.595	95.3918
209.597	95.3917
209.597	95.3885
209.592	95.3810
209.588	95.3758
209.585	95.3728
209.583	95.3659
209.580	95.3608
209.581	95.3582
209.583	95.3567
209.588	95.3509
209.593	95.3468
209.597	95.3410
209.602	95.3378
209.604	95.3334
209.608	95.3283
209.607	95.3215
209.605	95.3076
209.594	95.3010
209.583	95.3052
209.571	95.3042
209.562	95.3003
209.557	95.2930
209.552	95.2872
209.551	95.2832
209.551	95.2768
209.551	95.2712
209.550	95.2674
209.552	95.2618
209.551	95.2550
209.551	95.2502
209.551	95.2466
209.548	95.2438
209.549	95.2398
209.549	95.2350
209.544	95.2326
209.540	95.2306
209.539	95.2301
209.539	95.2264
209.541	95.2202
209.546	95.2144
209.556	95.2113
209.563	95.2072
209.568	95.2029
209.573	95.1998
209.577	95.1968
209.575	95.1939
209.573	95.1859
209.568	95.1809
209.559	95.1773
209.550	95.1791
209.544	95.1777
209.540	95.1688
209.533	95.1591
209.527	95.1548
209.521	95.1521
209.513	95.1495
209.508	95.1455
209.497	95.1415
209.492	95.1367
209.485	95.1337
209.478	95.1271
209.475	95.1234
209.471	95.1194
209.467	95.1152
209.462	95.1151
209.458	95.1130
209.456	95.1061
209.455	95.0997
209.455	95.0910
209.454	95.0836
209.454	95.0824
209.457	95.0807
209.458	95.0790
209.458	95.0796
209.457	95.0792
209.459	95.0750
209.459	95.0705
209.461	95.0697
209.462	95.0647
209.462	95.0580
209.464	95.0539
209.462	95.0502
209.464	95.0472
209.463	95.0420
209.463	95.0342
209.462	95.0288
209.462	95.0265
209.461	95.0282
209.459	95.0284
209.458	95.0295
209.462	95.0279
209.460	95.0232
209.460	95.0205
209.461	95.0160
209.462	95.0106
209.466	95.0027
209.474	94.9952
209.483	94.9919
209.493	94.9907
209.501	94.9911
209.506	94.9898
209.508	94.9874
209.506	94.9842
209.504	94.9795
209.500	94.9754
209.497	94.9715
209.494	94.9732
209.496	94.9708
209.501	94.9657
209.505	94.9612
209.511	94.9521
209.516	94.9491
209.524	94.9487
209.532	94.9454
209.539	94.9396
209.540	94.9331
209.540	94.9293
209.541	94.9254
209.535	94.9227
209.525	94.9217
209.515	94.9169
209.505	94.9090
209.497	94.9056
209.485	94.9058
209.474	94.9056
209.461	94.8988
209.448	94.8916
209.437	94.8883
209.426	94.8884
209.416	94.8872
209.409	94.8888
209.405	94.8867
209.400	94.8837
209.400	94.8822
209.397	94.8810
209.398	94.8775
209.395	94.8748
209.394	94.8698
209.397	94.8676
209.402	94.8630
209.418	94.8552
209.440	94.8544
209.466	94.8597
209.490	94.8580
209.514	94.8556
209.534	94.8535
209.552	94.8528
209.567	94.8510
209.583	94.8483
209.592	94.8448
209.591	94.8431
209.584	94.8374
209.574	94.8305
209.558	94.8266
209.542	94.8264
209.526	94.8246
209.511	94.8218
209.497	94.8182
209.483	94.8158
209.471	94.8122
209.458	94.8093
209.446	94.8096
209.437	94.8071
209.435	94.8021
209.434	94.7973
209.434	94.7918
209.431	94.7858
209.427	94.7830
209.422	94.7812
209.412	94.7763
209.398	94.7748
209.386	94.7756
209.374	94.7742
209.361	94.7735
209.352	94.7712
209.337	94.7662
209.328	94.7598
209.321	94.7547
209.317	94.7547
209.316	94.7550
209.318	94.7487
209.326	94.7449
209.337	94.7423
209.349	94.7435
209.359	94.7435
209.364	94.7379
209.369	94.7329
209.370	94.7305
209.368	94.7295
209.364	94.7298
209.357	94.7300
209.352	94.7291
209.344	94.7260
209.334	94.7212
209.314	94.7168
209.294	94.7111
209.270	94.7078
209.249	94.7085
209.235	94.7048
209.226	94.7009
209.216	94.6954
209.215	94.6921
209.208	94.6881
209.204	94.6902
209.201	94.6891
209.199	94.6841
209.195	94.6802
209.195	94.6795
209.196	94.6762
209.198	94.6709
209.202	94.6679
209.210	94.6661
209.219	94.6636
209.229	94.6626
209.240	94.6607
209.249	94.6581
209.255	94.6587
209.263	94.6567
209.264	94.6522
209.257	94.6516
209.255	94.6493
209.247	94.6472
209.240	94.6440
209.230	94.6392
209.221	94.6351
209.208	94.6331
209.198	94.6322
209.182	94.6311
209.168	94.6309
209.159	94.6283
209.153	94.6245
209.147	94.6218
209.138	94.6207
209.134	94.6200
209.126	94.6172
209.120	94.6133
209.119	94.6130
209.118	94.6135
209.122	94.6096
209.126	94.6084
209.133	94.6094
209.140	94.6078
209.145	94.6038
209.145	94.6001
209.147	94.5987
209.150	94.5959
209.154	94.5925
209.158	94.5921
209.159	94.5926
209.161	94.5874
209.166	94.5788
209.171	94.5747
209.182	94.5750
209.190	94.5756
209.201	94.5756
209.207	94.5740
209.212	94.5730
209.216	94.5713
209.215	94.5698
209.214	94.5650
209.212	94.5610
209.206	94.5629
209.204	94.5646
209.198	94.5617
209.197	94.5583
209.193	94.5551
209.193	94.5514
209.195	94.5504
209.198	94.5470
209.200	94.5435
209.206	94.5404
209.211	94.5400
209.214	94.5418
209.219	94.5411
209.223	94.5384
209.225	94.5347
209.224	94.5322
209.224	94.5305
209.224	94.5293
209.224	94.5270
209.225	94.5229
209.227	94.5198
209.230	94.5153
209.221	94.5130
209.217	94.5101
209.209	94.5070
209.196	94.5059
209.184	94.5041
209.168	94.5036
209.159	94.5053
209.150	94.5078
209.139	94.5061
209.130	94.5024
209.123	94.4976
209.118	94.4923
209.113	94.4897
209.113	94.4867
209.117	94.4809
209.121	94.4749
209.122	94.4755
209.126	94.4791
209.131	94.4813
209.135	94.4797
209.139	94.4769
209.138	94.4732
209.137	94.4707
209.128	94.4700
209.111	94.4705
209.087	94.4677
209.064	94.4639
209.040	94.4641
209.014	94.4622
208.995	94.4583
208.974	94.4552
208.957	94.4548
208.946	94.4551
208.945	94.4511
208.957	94.4479
208.977	94.4454
209.007	94.4445
209.036	94.4423
209.066	94.4385
209.088	94.4378
209.108	94.4351
209.122	94.4314
209.134	94.4290
209.149	94.4294
209.158	94.4289
209.168	94.4271
209.180	94.4235
209.190	94.4184
209.197	94.4157
209.202	94.4148
209.202	94.4129
209.198	94.4123
209.192	94.4101
209.184	94.4082
209.172	94.4087
209.166	94.4066
209.161	94.4023
209.166	94.3993
209.169	94.3969
209.173	94.3968
209.178	94.3937
209.181	94.3930
209.177	94.3927
209.177	94.3898
209.171	94.3890
209.161	94.3882
209.155	94.3853
209.153	94.3827
209.164	94.3815
209.180	94.3828
209.192	94.3829
209.204	94.3777
209.206	94.3752
209.209	94.3774
209.206	94.3793
209.199	94.3771
209.192	94.3737
209.187	94.3690
209.184	94.3665
209.181	94.3675
209.184	94.3684
209.181	94.3654
209.181	94.3627
209.177	94.3587
209.174	94.3562
209.173	94.3559
209.168	94.3539
209.168	94.3530
209.164	94.3528
209.166	94.3513
209.172	94.3497
209.180	94.3500
209.173	94.3474
209.169	94.3445
209.154	94.3425
209.127	94.3412
209.097	94.3390
209.066	94.3360
209.031	94.3355
209.005	94.3339
208.979	94.3318
208.957	94.3310
208.933	94.3316
208.911	94.3298
208.895	94.3282
208.882	94.3242
208.869	94.3229
208.866	94.3251
208.863	94.3225
208.865	94.3191
208.868	94.3153
208.861	94.3122
208.844	94.3136
208.815	94.3139
208.786	94.3119
208.753	94.3077
208.726	94.3052
208.711	94.3049
208.696	94.3054
208.678	94.3089
208.661	94.3083
208.635	94.3047
208.613	94.3031
208.584	94.3017
208.547	94.2965
208.508	94.2933
208.475	94.2911
208.438	94.2909
208.401	94.2914
208.366	94.2899
208.340	94.2880
208.329	94.2839
208.321	94.2791
208.325	94.2791
208.328	94.2815
208.332	94.2825
208.336	94.2818
208.337	94.2795
208.336	94.2785
208.338	94.2778
208.339	94.2755
208.339	94.2733
208.338	94.2709
208.341	94.2684
208.347	94.2651
208.344	94.2622
208.349	94.2587
208.345	94.2555
208.344	94.2546
208.341	94.2551
208.335	94.2524
208.323	94.2513
208.310	94.2495
208.295	94.2497
208.281	94.2505
208.269	94.2505
208.261	94.2501
208.257	94.2485
208.252	94.2439
208.251	94.2414
208.248	94.2411
208.249	94.2397
208.253	94.2389
208.255	94.2376
208.263	94.2363
208.269	94.2338
208.273	94.2338
208.275	94.2355
208.276	94.2353
208.272	94.2328
208.269	94.2281
208.262	94.2232
208.260	94.2197
208.260	94.2187
208.265	94.2200
208.270	94.2217
208.268	94.2199
208.273	94.2177
208.272	94.2152
208.265	94.2095
208.247	94.2074
208.229	94.2061
208.217	94.2061
208.209	94.2044
208.209	94.2042
208.220	94.2039
208.241	94.2032
208.260	94.2020
208.281	94.2018
208.300	94.2000
208.317	94.1946
208.331	94.1932
208.345	94.1941
208.357	94.1950
208.365	94.1940
208.366	94.1936
208.373	94.1922
208.376	94.1898
208.378	94.1885
208.380	94.1871
208.384	94.1863
208.386	94.1856
208.383	94.1807
208.376	94.1792
208.369	94.1795
208.363	94.1803
208.353	94.1804
208.345	94.1793
208.343	94.1781
208.356	94.1770
208.378	94.1739
208.411	94.1720
208.455	94.1718
208.498	94.1718
208.538	94.1698
208.575	94.1677
208.611	94.1681
208.639	94.1678
208.667	94.1653
208.689	94.1653
208.706	94.1640
208.723	94.1600
208.734	94.1572
208.745	94.1580
208.755	94.1601
208.764	94.1589
208.774	94.1567
208.783	94.1542
208.791	94.1533
208.797	94.1495
208.803	94.1421
208.809	94.1352
208.817	94.1317
208.828	94.1324
208.837	94.1355
208.848	94.1385
208.859	94.1393
208.871	94.1406
208.888	94.1420
208.901	94.1425
208.913	94.1400
208.923	94.1366
208.931	94.1353
208.930	94.1342
208.928	94.1360
208.917	94.1358
208.907	94.1340
208.890	94.1331
208.874	94.1308
208.865	94.1292
208.860	94.1280
208.861	94.1268
208.869	94.1260
208.879	94.1241
208.893	94.1229
208.904	94.1212
208.910	94.1166
208.921	94.1143
208.930	94.1146
208.937	94.1161
208.940	94.1142
208.944	94.1119
208.945	94.1137
208.944	94.1110
208.940	94.1048
208.936	94.1017
208.924	94.0997
208.915	94.0987
208.903	94.0973
208.883	94.0980
208.870	94.1011
208.853	94.1006
208.843	94.0986
208.836	94.0954
208.837	94.0960
208.845	94.0962
208.851	94.0965
208.856	94.0958
208.859	94.0948
208.863	94.0923
208.866	94.0920
208.871	94.0921
208.875	94.0889
208.878	94.0876
208.881	94.0881
208.884	94.0885
208.887	94.0887
208.888	94.0873
208.890	94.0853
208.891	94.0813
208.887	94.0777
208.884	94.0767
208.881	94.0747
208.878	94.0748
208.882	94.0756
208.883	94.0744
208.885	94.0725
208.884	94.0721
208.882	94.0716
208.879	94.0710
208.877	94.0699
208.876	94.0698
208.869	94.0697
208.864	94.0685
208.860	94.0640
208.857	94.0623
208.852	94.0622
208.848	94.0632
208.847	94.0611
208.847	94.0587
208.850	94.0564
208.855	94.0522
208.861	94.0509
208.865	94.0495
208.873	94.0500
208.874	94.0511
208.876	94.0522
208.873	94.0522
208.868	94.0526
208.859	94.0515
208.850	94.0494
208.840	94.0473
208.834	94.0429
208.828	94.0406
208.822	94.0406
208.815	94.0422
208.812	94.0410
208.807	94.0382
208.804	94.0347
208.806	94.0332
208.808	94.0319
208.809	94.0321
208.809	94.0356
208.810	94.0353
208.810	94.0334
208.810	94.0320
208.810	94.0312
208.812	94.0304
208.812	94.0286
208.814	94.0239
208.819	94.0218
208.823	94.0230
208.828	94.0230
208.832	94.0208
208.839	94.0199
208.842	94.0197
208.844	94.0192
208.840	94.0183
208.839	94.0191
208.840	94.0176
208.846	94.0141
208.846	94.0127
208.850	94.0145
208.856	94.0142
208.860	94.0122
208.863	94.0104
208.863	94.0091
208.861	94.0087
208.860	94.0066
208.853	94.0046
208.849	94.0042
208.845	93.9995
208.835	93.9960
208.828	93.9918
208.827	93.9930
208.825	93.9952
208.826	93.9980
208.827	93.9988
208.825	94.0005
208.826	93.9991
208.820	93.9985
208.817	93.9976
208.808	93.9968
208.802	93.9939
208.795	93.9911
208.787	93.9914
208.783	93.9912
208.780	93.9907
208.777	93.9890
208.777	93.9874
208.783	93.9858
208.787	93.9850
208.788	93.9847
208.792	93.9841
208.793	93.9815
208.797	93.9792
208.805	93.9777
208.815	93.9770
208.831	93.9774
208.838	93.9743
208.846	93.9717
208.848	93.9717
208.842	93.9713
208.836	93.9736
208.831	93.9743
208.826	93.9720
208.824	93.9703
208.825	93.9676
208.828	93.9660
208.833	93.9643
208.836	93.9596
208.842	93.9599
208.842	93.9604
208.836	93.9593
208.835	93.9593
208.825	93.9590
208.810	93.9616
208.794	93.9637
208.773	93.9616
208.750	93.9597
208.730	93.9586
208.707	93.9576
208.699	93.9554
208.696	93.9560
208.701	93.9574
208.712	93.9560
208.724	93.9531
208.734	93.9507
208.739	93.9503
208.748	93.9497
208.755	93.9486
208.758	93.9456
208.760	93.9425
208.756	93.9426
208.757	93.9435
208.752	93.9448
208.751	93.9447
208.746	93.9440
208.744	93.9452
208.739	93.9453
208.739	93.9458
208.735	93.9445
208.732	93.9419
208.727	93.9372
208.724	93.9350
208.718	93.9338
208.723	93.9363
208.724	93.9392
208.724	93.9408
208.722	93.9398
208.717	93.9367
208.712	93.9371
208.705	93.9387
208.698	93.9370
208.697	93.9329
208.687	93.9263
208.678	93.9223
208.668	93.9236
208.659	93.9249
208.650	93.9218
208.638	93.9210
208.629	93.9186
208.619	93.9165
208.609	93.9166
208.609	93.9162
208.605	93.9148
208.605	93.9162
208.608	93.9160
208.613	93.9150
208.622	93.9138
208.628	93.9143
208.638	93.9101
208.649	93.9062
208.663	93.9047
208.680	93.9060
208.694	93.9063
208.709	93.9043
208.720	93.9053
208.724	93.9082
208.727	93.9097
208.726	93.9087
208.720	93.9082
208.709	93.9079
208.697	93.9073
208.681	93.9052
208.666	93.9047
208.653	93.9036
208.641	93.9041
208.633	93.9028
208.627	93.9022
208.626	93.8982
208.630	93.8964
208.635	93.8958
208.641	93.8949
208.651	93.8956
208.654	93.8968
208.658	93.8967
208.664	93.8959
208.672	93.8946
208.672	93.8934
208.672	93.8934
208.665	93.8908
208.662	93.8888
208.655	93.8885
208.650	93.8886
208.649	93.8874
208.645	93.8871
208.644	93.8854
208.643	93.8857
208.643	93.8852
208.645	93.8860
208.651	93.8867
208.661	93.8869
208.673	93.8851
208.676	93.8830
208.681	93.8812
208.681	93.8787
208.678	93.8784
208.679	93.8787
208.681	93.8796
208.680	93.8792
208.679	93.8788
208.674	93.8783
208.671	93.8782
208.665	93.8806
208.663	93.8818
208.664	93.8809
208.665	93.8785
208.669	93.8767
208.674	93.8755
208.678	93.8741
208.684	93.8725
208.690	93.8708
208.690	93.8697
208.692	93.8685
208.688	93.8662
208.689	93.8644
208.690	93.8629
208.688	93.8631
208.689	93.8627
208.693	93.8629
208.699	93.8631
208.708	93.8619
208.716	93.8599
208.722	93.8596
208.728	93.8593
208.737	93.8585
208.748	93.8587
208.757	93.8540
208.763	93.8519
208.770	93.8542
208.772	93.8564
208.772	93.8580
208.772	93.8583
208.772	93.8590
208.773	93.8559
208.784	93.8508
208.800	93.8482
208.815	93.8474
208.834	93.8481
208.854	93.8485
208.871	93.8473
208.889	93.8460
208.902	93.8450
208.916	93.8460
208.918	93.8499
208.920	93.8507
208.918	93.8501
208.917	93.8488
208.915	93.8469
208.915	93.8466
208.916	93.8451
208.917	93.8390
208.922	93.8352
208.923	93.8342
208.925	93.8345
208.929	93.8349
208.934	93.8349
208.939	93.8368
208.944	93.8386
208.947	93.8367
208.954	93.8324
208.966	93.8296
208.977	93.8285
208.990	93.8267
209.004	93.8267
209.019	93.8289
209.033	93.8296
209.049	93.8298
209.065	93.8292
209.074	93.8282
209.082	93.8285
209.083	93.8262
209.082	93.8246
209.071	93.8255
209.061	93.8251
209.049	93.8244
209.037	93.8230
209.027	93.8222
209.015	93.8221
209.006	93.8216
209.001	93.8213
208.994	93.8217
208.992	93.8219
208.992	93.8215
208.989	93.8203
208.988	93.8196
208.988	93.8183
208.986	93.8180
208.982	93.8181
208.983	93.8190
208.981	93.8173
208.979	93.8156
208.979	93.8164
208.977	93.8172
208.979	93.8168
208.981	93.8162
208.988	93.8154
208.992	93.8134
208.993	93.8126
208.986	93.8111
208.982	93.8087
208.963	93.8086
208.944	93.8085
208.924	93.8070
208.895	93.8054
208.861	93.8042
208.822	93.8034
208.777	93.8041
208.732	93.8029
208.693	93.8003
208.669	93.7994
208.649	93.7994
208.647	93.7992
208.651	93.7987
208.663	93.7986
208.679	93.7978
208.697	93.7983
208.713	93.7969
208.728	93.7978
208.739	93.7986
208.748	93.7969
208.737	93.7954
208.721	93.7958
208.692	93.7950
208.657	93.7935
208.627	93.7941
208.603	93.7943
208.583	93.7937
208.572	93.7923
208.569	93.7878
208.575	93.7858
208.593	93.7862
208.619	93.7865
208.651	93.7870
208.687	93.7870
208.721	93.7862
208.751	93.7841
208.775	93.7857
208.799	93.7883
208.822	93.7895
208.841	93.7884
208.859	93.7858
208.873	93.7844
208.886	93.7827
208.895	93.7795
208.899	93.7766
208.901	93.7772
208.892	93.7758
208.884	93.7778
208.877	93.7790
208.859	93.7813
208.842	93.7814
208.825	93.7800
208.811	93.7788
208.799	93.7773
208.785	93.7766
208.776	93.7777
208.769	93.7772
208.763	93.7752
208.757	93.7746
208.751	93.7743
208.743	93.7743
208.732	93.7743
208.725	93.7749
208.721	93.7748
208.715	93.7759
208.713	93.7754
208.711	93.7738
208.706	93.7716
208.698	93.7709
208.690	93.7692
208.684	93.7676
208.679	93.7665
208.674	93.7653
208.675	93.7652
208.671	93.7647
208.670	93.7636
208.672	93.7614
208.675	93.7603
208.679	93.7584
208.684	93.7578
208.689	93.7571
208.689	93.7576
208.685	93.7562
208.678	93.7562
208.668	93.7570
208.660	93.7576
208.650	93.7567
208.649	93.7555
208.652	93.7519
208.659	93.7512
208.674	93.7508
208.697	93.7516
208.718	93.7506
208.733	93.7525
208.747	93.7562
208.755	93.7573
208.753	93.7557
208.748	93.7553
208.740	93.7546
208.729	93.7542
208.720	93.7505
208.709	93.7484
208.712	93.7479
208.712	93.7497
208.720	93.7475
208.735	93.7441
208.749	93.7441
208.767	93.7442
208.785	93.7455
208.805	93.7469
208.824	93.7475
208.843	93.7466
208.860	93.7442
208.879	93.7417
208.895	93.7399
208.912	93.7372
208.925	93.7365
208.938	93.7371
208.950	93.7385
208.960	93.7397
208.971	93.7416
208.981	93.7442
208.984	93.7429
208.985	93.7400
208.985	93.7378
208.983	93.7376
208.977	93.7355
208.967	93.7349
208.952	93.7360
208.938	93.7350
208.925	93.7330
208.917	93.7315
208.906	93.7309
208.904	93.7324
208.903	93.7355
208.902	93.7369
208.906	93.7381
208.909	93.7379
208.910	93.7358
208.913	93.7345
208.919	93.7332
208.917	93.7335
208.916	93.7341
208.916	93.7334
208.916	93.7318
208.914	93.7303
208.914	93.7284
208.912	93.7285
208.913	93.7290
208.914	93.7295
208.916	93.7290
208.916	93.7284
208.915	93.7284
208.907	93.7272
208.901	93.7248
208.895	93.7226
208.894	93.7201
208.898	93.7189
208.906	93.7183
208.914	93.7173
208.920	93.7197
208.925	93.7214
208.928	93.7199
208.930	93.7207
208.930	93.7210
208.928	93.7211
208.922	93.7216
208.915	93.7222
208.911	93.7190
208.902	93.7158
208.892	93.7143
208.886	93.7138
208.878	93.7133
208.873	93.7152
208.869	93.7182
208.870	93.7190
208.873	93.7167
208.875	93.7135
208.875	93.7133
208.871	93.7129
208.864	93.7154
208.852	93.7167
208.838	93.7130
208.820	93.7123
208.803	93.7084
208.787	93.7096
208.774	93.7113
208.761	93.7097
208.755	93.7072
208.755	93.7058
208.755	93.7060
208.759	93.7081
208.763	93.7105
208.769	93.7100
208.774	93.7088
208.778	93.7054
208.780	93.7027
208.786	93.7019
208.795	93.7036
208.802	93.7045
208.814	93.7032
208.821	93.7007
208.823	93.6972
208.813	93.6952
208.804	93.6925
208.790	93.6912
208.776	93.6908
208.769	93.6919
208.765	93.6913
208.758	93.6934
208.751	93.6945
208.747	93.6950
208.744	93.6954
208.738	93.6933
208.730	93.6894
208.726	93.6866
208.724	93.6864
208.722	93.6869
208.729	93.6883
208.738	93.6909
208.748	93.6916
208.748	93.6905
208.744	93.6888
208.740	93.6894
208.734	93.6903
208.735	93.6904
208.740	93.6896
208.749	93.6894
208.760	93.6889
208.772	93.6905
208.786	93.6917
208.797	93.6921
208.813	93.6905
208.830	93.6877
208.844	93.6871
208.856	93.6871
208.867	93.6881
208.871	93.6871
208.867	93.6826
208.863	93.6818
208.863	93.6818
208.866	93.6841
208.875	93.6834
208.886	93.6799
208.897	93.6755
208.907	93.6759
208.919	93.6764
208.923	93.6771
208.931	93.6757
208.935	93.6741
208.936	93.6746
208.936	93.6753
208.939	93.6766
208.941	93.6760
208.941	93.6756
208.943	93.6763
208.944	93.6748
208.945	93.6750
208.946	93.6723
208.954	93.6708
208.963	93.6712
208.969	93.6736
208.973	93.6741
208.978	93.6701
208.984	93.6685
208.986	93.6657
208.991	93.6641
208.991	93.6640
208.990	93.6646
208.985	93.6644
208.981	93.6642
208.974	93.6639
208.967	93.6631
208.957	93.6640
208.947	93.6659
208.936	93.6668
208.931	93.6678
208.911	93.6664
208.892	93.6645
208.867	93.6648
208.839	93.6648
208.810	93.6641
208.782	93.6638
208.767	93.6611
208.755	93.6590
208.757	93.6581
208.758	93.6568
208.759	93.6568
208.761	93.6587
208.758	93.6582
208.754	93.6595
208.747	93.6587
208.740	93.6599
208.736	93.6618
208.729	93.6634
208.724	93.6632
208.718	93.6619
208.711	93.6604
208.705	93.6579
208.702	93.6555
208.695	93.6547
208.687	93.6538
208.684	93.6542
208.679	93.6566
208.673	93.6599
208.669	93.6599
208.667	93.6563
208.669	93.6562
208.672	93.6616
208.677	93.6644
208.688	93.6632
208.702	93.6589
208.713	93.6557
208.721	93.6542
208.729	93.6548
208.732	93.6545
208.733	93.6531
208.730	93.6510
208.721	93.6499
208.715	93.6488
208.703	93.6509
208.693	93.6509
208.691	93.6471
208.686	93.6437
208.688	93.6443
208.688	93.6444
208.685	93.6443
208.683	93.6459
208.681	93.6476
208.680	93.6469
208.674	93.6446
208.667	93.6440
208.668	93.6422
208.663	93.6430
208.661	93.6426
208.662	93.6409
208.659	93.6427
208.657	93.6432
208.657	93.6431
208.655	93.6418
208.664	93.6392
208.676	93.6377
208.694	93.6375
208.720	93.6385
208.743	93.6406
208.769	93.6394
208.791	93.6361
208.810	93.6341
208.826	93.6329
208.838	93.6333
208.848	93.6341
208.856	93.6349
208.864	93.6347
208.867	93.6339
208.867	93.6325
208.861	93.6344
208.854	93.6357
208.846	93.6373
208.846	93.6397
208.847	93.6387
208.852	93.6350
208.865	93.6335
208.875	93.6314
208.878	93.6295
208.884	93.6301
208.886	93.6311
208.881	93.6339
208.872	93.6351
208.865	93.6338
208.861	93.6305
208.857	93.6282
208.857	93.6295
208.864	93.6300
208.870	93.6298
208.877	93.6299
208.887	93.6293
208.893	93.6303
208.897	93.6275
208.903	93.6253
208.909	93.6224
208.913	93.6221
208.914	93.6236
208.915	93.6254
208.914	93.6263
208.906	93.6227
208.900	93.6202
208.890	93.6200
208.885	93.6195
208.884	93.6221
208.882	93.6245
208.882	93.6255
208.881	93.6253
208.886	93.6237
208.891	93.6209
208.892	93.6198
208.895	93.6201
208.899	93.6214
208.900	93.6215
208.904	93.6208
208.907	93.6198
208.909	93.6192
208.914	93.6194
208.922	93.6185
208.929	93.6171
208.936	93.6156
208.940	93.6155
208.941	93.6160
208.942	93.6176
208.941	93.6166
208.938	93.6145
208.939	93.6113
208.940	93.6085
208.943	93.6084
208.949	93.6104
208.961	93.6119
208.972	93.6135
208.984	93.6143
208.991	93.6124
208.997	93.6113
208.996	93.6103
208.993	93.6100
208.985	93.6089
208.973	93.6083
208.961	93.6073
208.947	93.6071
208.937	93.6071
208.923	93.6080
208.910	93.6096
208.897	93.6084
208.886	93.6079
208.882	93.6079
208.879	93.6090
208.881	93.6071
208.888	93.6036
208.896	93.6038
208.899	93.6082
208.901	93.6108
208.898	93.6098
208.888	93.6078
208.878	93.6060
208.869	93.6058
208.860	93.6044
208.853	93.6023
208.844	93.6004
208.835	93.6005
208.823	93.6018
208.811	93.6008
208.800	93.5982
208.788	93.5968
208.778	93.5959
208.774	93.5962
208.770	93.5980
208.772	93.5998
208.779	93.6011
208.787	93.6008
208.792	93.5992
208.798	93.5978
208.806	93.5981
208.811	93.5974
208.809	93.5961
208.810	93.5949
208.810	93.5949
208.806	93.5923
208.801	93.5909
208.796	93.5918
208.781	93.5910
208.767	93.5908
208.750	93.5921
208.738	93.5934
208.726	93.5931
208.725	93.5926
208.727	93.5926
208.732	93.5916
208.738	93.5896
208.747	93.5875
208.759	93.5860
208.767	93.5859
208.766	93.5864
208.766	93.5883
208.764	93.5898
208.757	93.5894
208.753	93.5883
208.754	93.5868
208.748	93.5863
208.746	93.5856
208.751	93.5846
208.748	93.5838
208.753	93.5837
208.756	93.5840
208.751	93.5840
208.746	93.5852
208.734	93.5867
208.726	93.5857
208.718	93.5840
208.713	93.5824
208.717	93.5819
208.716	93.5817
208.721	93.5825
208.722	93.5832
208.721	93.5836
208.716	93.5829
208.718	93.5815
208.713	93.5806
208.709	93.5800
208.704	93.5804
208.696	93.5795
208.690	93.5793
208.686	93.5785
208.681	93.5765
208.682	93.5763
208.683	93.5750
208.686	93.5714
208.685	93.5720
208.684	93.5755
208.681	93.5768
208.674	93.5753
208.667	93.5743
208.655	93.5740
208.647	93.5720
208.639	93.5696
208.631	93.5681
208.626	93.5673
208.620	93.5687
208.617	93.5701
208.614	93.5717
208.612	93.5729
208.609	93.5725
208.608	93.5717
208.612	93.5710
208.615	93.5707
208.622	93.5707
208.632	93.5720
208.639	93.5750
208.650	93.5763
208.662	93.5742
208.670	93.5723
208.676	93.5712
208.682	93.5691
208.688	93.5687
208.696	93.5700
208.706	93.5692
208.709	93.5696
208.710	93.5695
208.709	93.5703
208.702	93.5716
208.692	93.5691
208.686	93.5659
208.679	93.5642
208.669	93.5639
208.662	93.5647
208.657	93.5653
208.654	93.5649
208.651	93.5649
208.649	93.5641
208.649	93.5637
208.643	93.5612
208.643	93.5584
208.641	93.5586
208.642	93.5614
208.640	93.5604
208.638	93.5600
208.641	93.5603
208.647	93.5607
208.654	93.5613
208.663	93.5625
208.661	93.5618
208.658	93.5602
208.648	93.5592
208.634	93.5588
208.618	93.5575
208.607	93.5573
208.592	93.5565
208.579	93.5561
208.562	93.5561
208.541	93.5557
208.525	93.5559
208.517	93.5549
208.516	93.5550
208.533	93.5559
208.554	93.5573
208.579	93.5601
208.606	93.5615
208.632	93.5605
208.652	93.5578
208.661	93.5551
208.669	93.5540
208.675	93.5529
208.679	93.5524
208.692	93.5520
208.704	93.5504
208.719	93.5490
208.732	93.5501
208.744	93.5510
208.754	93.5519
208.759	93.5526
208.760	93.5531
208.762	93.5530
208.764	93.5525
208.763	93.5509
208.765	93.5505
208.767	93.5508
208.771	93.5510
208.779	93.5489
208.786	93.5472
208.793	93.5444
208.800	93.5435
208.811	93.5459
208.819	93.5476
208.824	93.5470
208.828	93.5480
208.831	93.5486
208.835	93.5478
208.840	93.5474
208.844	93.5461
208.850	93.5468
208.858	93.5482
208.865	93.5481
208.875	93.5488
208.881	93.5491
208.891	93.5484
208.901	93.5453
208.909	93.5434
208.919	93.5431
208.926	93.5441
208.933	93.5435
208.937	93.5427
208.937	93.5418
208.939	93.5414
208.938	93.5418
208.936	93.5406
208.933	93.5400
208.927	93.5407
208.915	93.5387
208.903	93.5368
208.899	93.5352
208.894	93.5359
208.896	93.5376
208.902	93.5391
208.911	93.5399
208.924	93.5421
208.935	93.5444
208.945	93.5432
208.951	93.5408
208.953	93.5383
208.951	93.5374
208.946	93.5387
208.940	93.5383
208.933	93.5381
208.923	93.5371
208.909	93.5340
208.898	93.5332
208.889	93.5349
208.880	93.5360
208.878	93.5384
208.877	93.5397
208.876	93.5390
208.876	93.5370
208.873	93.5349
208.871	93.5334
208.872	93.5329
208.871	93.5332
208.867	93.5338
208.865	93.5330
208.862	93.5337
208.860	93.5337
208.859	93.5331
208.853	93.5322
208.844	93.5310
208.833	93.5292
208.826	93.5288
208.816	93.5299
208.816	93.5308
208.820	93.5313
208.825	93.5298
208.829	93.5303
208.839	93.5313
208.850	93.5303
208.864	93.5285
208.876	93.5273
208.891	93.5272
208.904	93.5292
208.918	93.5309
208.928	93.5295
208.936	93.5270
208.939	93.5239
208.939	93.5223
208.940	93.5220
208.940	93.5230
208.939	93.5246
208.938	93.5253
208.940	93.5247
208.942	93.5223
208.943	93.5182
208.944	93.5156
208.943	93.5168
208.943	93.5199
208.942	93.5215
208.943	93.5246
208.944	93.5260
208.945	93.5253
208.945	93.5239
208.945	93.5233
208.945	93.5210
208.940	93.5210
208.936	93.5207
208.931	93.5197
208.932	93.5198
208.933	93.5189
208.937	93.5176
208.940	93.5166
208.940	93.5156
208.939	93.5162
208.936	93.5159
208.934	93.5150
208.929	93.5132
208.924	93.5116
208.920	93.5120
208.917	93.5133
208.913	93.5137
208.911	93.5151
208.912	93.5154
208.915	93.5163
208.923	93.5168
208.931	93.5178
208.937	93.5158
208.942	93.5121
208.945	93.5109
208.951	93.5136
208.950	93.5130
208.951	93.5114
208.949	93.5107
208.947	93.5102
208.946	93.5108
208.946	93.5115
208.947	93.5126
208.948	93.5129
208.949	93.5110
208.957	93.5088
208.962	93.5093
208.968	93.5083
208.972	93.5068
208.977	93.5055
208.980	93.5055
208.983	93.5065
208.985	93.5072
208.986	93.5070
208.988	93.5071
208.986	93.5076
208.986	93.5090
208.987	93.5079
208.989	93.5061
208.990	93.5056
208.993	93.5055
208.993	93.5049
208.993	93.5061
208.986	93.5059
208.982	93.5058
208.979	93.5050
208.974	93.5031
208.969	93.5026
208.967	93.5043
208.973	93.5033
209.026	93.5025
209.150	93.5029
209.387	93.5038
209.768	93.5046
210.299	93.5046
210.967	93.5036
211.759	93.5031
212.663	93.5029
213.662	93.5006
214.743	93.4989
215.890	93.5002
217.091	93.5022
218.336	93.5026
219.623	93.5008
220.947	93.4995
222.300	93.5005
223.677	93.5010
225.072	93.5000
226.482	93.4988
227.904	93.4984
229.333	93.4972
230.767	93.4965
232.214	93.4959
233.669	93.4953
235.133	93.4954
236.611	93.4943
238.102	93.4936
239.000	93.4932
240.494	93.4928
241.944	93.4933
243.308	93.4932
244.537	93.4911
245.618	93.4902
246.552	93.4883
247.354	93.4864
248.042	93.4849
248.632	93.4839
249.147	93.4831
249.597	93.4822
249.995	93.4809
250.349	93.4796
250.670	93.4782
250.957	93.4770
251.216	93.4759
251.446	93.4747
251.653	93.4744
251.844	93.4734
252.017	93.4720
252.178	93.4706
252.331	93.4694
252.477	93.4684
252.613	93.4675
252.745	93.4668
252.870	93.4655
252.987	93.4641
253.098	93.4627
253.206	93.4615
253.313	93.4603
253.417	93.4591
253.520	93.4580
253.629	93.4570
253.744	93.4561
253.860	93.4551
253.975	93.4540
254.081	93.4530
254.182	93.4519
254.276	93.4508
254.362	93.4498
254.445	93.4485
254.522	93.4475
254.595	93.4467
254.661	93.4456
254.723	93.4447
254.777	93.4435
254.830	93.4426
254.874	93.4416
254.917	93.4405
254.954	93.4396
254.993	93.4387
255.028	93.4377
255.065	93.4368
255.100	93.4357
255.137	93.4348
255.166	93.4340
255.198	93.4332
255.224	93.4321
255.245	93.4308
255.265	93.4298
255.280	93.4290
255.287	93.4281
255.296	93.4271
255.306	93.4263
255.315	93.4254
255.327	93.4244
255.339	93.4235
255.356	93.4225
255.376	93.4221
255.396	93.4215
255.416	93.4207
255.437	93.4197
255.453	93.4187
255.472	93.4176
255.487	93.4167
255.502	93.4157
255.515	93.4150
255.523	93.4142
255.529	93.4134
255.539	93.4124
255.546	93.4114
255.553	93.4103
255.562	93.4093
255.573	93.4087
255.581	93.4078
255.592	93.4069
255.601	93.4061
255.609	93.4052
255.613	93.4044
255.619	93.4035
255.625	93.4027
255.633	93.4017
255.644	93.4008
255.654	93.3999
255.665	93.3992
255.673	93.3983
255.681	93.3975
255.686	93.3967
255.687	93.3960
255.680	93.3953
255.668	93.3945
255.656	93.3935
255.647	93.3926
255.642	93.3920
255.643	93.3913
255.642	93.3906
255.646	93.3900
255.642	93.3890
255.640	93.3882
255.640	93.3873
255.640	93.3865
255.648	93.3857
255.657	93.3848
255.669	93.3838
255.682	93.3831
255.695	93.3823
255.708	93.3814
255.717	93.3805
255.721	93.3797
255.728	93.3790
255.731	93.3785
255.738	93.3778
255.744	93.3770
255.743	93.3762
255.738	93.3753
255.732	93.3744
255.727	93.3738
255.719	93.3731
255.713	93.3723
255.707	93.3713
255.700	93.3703
255.696	93.3694
255.693	93.3685
255.692	93.3677
255.686	93.3673
255.682	93.3668
255.678	93.3663
255.679	93.3656
255.685	93.3646
255.692	93.3640
255.702	93.3632
255.710	93.3626
255.716	93.3618
255.714	93.3611
255.709	93.3605
255.706	93.3598
255.707	93.3590
255.712	93.3581
255.719	93.3572
255.725	93.3564
255.730	93.3556
255.737	93.3549
255.746	93.3541
255.755	93.3533
255.766	93.3526
255.776	93.3520
255.790	93.3516
255.800	93.3511
255.807	93.3504
255.808	93.3496
255.798	93.3487
255.789	93.3478
255.778	93.3468
255.777	93.3461
255.779	93.3452
255.791	93.3445
255.807	93.3438
255.828	93.3431
255.854	93.3424
255.883	93.3416
255.905	93.3409
255.929	93.3401
255.944	93.3395
255.955	93.3389
255.958	93.3383
255.962	93.3377
255.964	93.3372
255.962	93.3366
255.958	93.3359
255.952	93.3352
255.951	93.3344
255.939	93.3338
255.927	93.3331
255.910	93.3325
255.883	93.3318
255.860	93.3311
255.842	93.3304
255.826	93.3297
255.809	93.3289
255.795	93.3283
255.778	93.3277
255.768	93.3270
255.755	93.3264
255.747	93.3261
255.746	93.3257
255.741	93.3252
255.742	93.3245
255.743	93.3238
255.744	93.3233
255.744	93.3229
255.748	93.3222
255.747	93.3215
255.751	93.3207
255.750	93.3197
255.751	93.3187
255.752	93.3178
255.744	93.3170
255.742	93.3165
255.736	93.3160
255.735	93.3157
255.733	93.3155
255.732	93.3148
255.731	93.3140
255.733	93.3133
255.737	93.3125
255.735	93.3117
255.734	93.3109
255.729	93.3101
255.727	93.3095
255.725	93.3090
255.724	93.3084
255.727	93.3079
255.729	93.3072
255.733	93.3067
255.735	93.3061
255.742	93.3054
255.748	93.3048
255.754	93.3038
255.765	93.3031
255.772	93.3026
255.779	93.3020
255.787	93.3015
255.795	93.3011
255.800	93.3005
255.804	93.2999
255.807	93.2993
255.811	93.2991
255.820	93.2989
255.835	93.2985
255.856	93.2976
255.875	93.2968
255.895	93.2959
255.911	93.2953
255.920	93.2946
255.928	93.2941
255.934	93.2936
255.941	93.2933
255.950	93.2929
255.958	93.2922
255.964	93.2913
255.966	93.2904
255.969	93.2897
255.966	93.2890
255.964	93.2886
255.963	93.2881
255.962	93.2877
255.958	93.2872
255.956	93.2865
255.956	93.2858
255.960	93.2852
255.965	93.2845
255.967	93.2839
255.971	93.2832
255.969	93.2827
255.968	93.2822
255.966	93.2815
255.962	93.2809
255.958	93.2803
255.955	93.2796
255.952	93.2789
255.948	93.2785
255.945	93.2780
255.944	93.2775
255.940	93.2769
255.935	93.2764
255.925	93.2759
255.913	93.2754
255.899	93.2751
255.881	93.2745
255.867	93.2739
255.852	93.2734
255.833	93.2728
255.813	93.2722
255.791	93.2716
255.781	93.2711
255.776	93.2706
255.778	93.2701
255.787	93.2696
255.798	93.2689
255.806	93.2682
255.810	93.2676
255.813	93.2669
255.814	93.2665
255.818	93.2660
255.823	93.2655
255.833	93.2649
255.846	93.2644
255.855	93.2639
255.863	93.2634
255.868	93.2629
255.867	93.2624
255.867	93.2619
255.866	93.2614
255.873	93.2608
255.884	93.2604
255.902	93.2599
255.918	93.2594
255.938	93.2589
255.957	93.2583
255.975	93.2577
255.988	93.2571
255.999	93.2566
256.005	93.2561
256.008	93.2557
256.011	93.2553
256.015	93.2548
256.019	93.2542
256.025	93.2537
256.028	93.2531
256.027	93.2527
256.029	93.2522
256.025	93.2517
256.023	93.2513
256.021	93.2510
256.025	93.2504
256.029	93.2499
256.034	93.2495
256.042	93.2489
256.047	93.2485
256.051	93.2479
256.051	93.2471
256.051	93.2463
256.048	93.2457
256.045	93.2451
256.043	93.2448
256.040	93.2445
256.038	93.2441
256.036	93.2437
256.026	93.2430
256.009	93.2425
255.988	93.2421
255.962	93.2416
255.938	93.2411
255.917	93.2407
255.900	93.2403
255.887	93.2400
255.878	93.2394
255.873	93.2389
255.875	93.2382
255.883	93.2377
255.894	93.2373
255.905	93.2369
255.913	93.2365
255.916	93.2362
255.909	93.2359
255.902	93.2354
255.899	93.2350
255.900	93.2342
255.913	93.2337
255.931	93.2331
255.951	93.2327
255.971	93.2322
255.990	93.2318
256.002	93.2314
256.011	93.2310
256.015	93.2307
256.016	93.2301
256.016	93.2292
256.016	93.2286
256.017	93.2281
256.023	93.2277
256.028	93.2275
256.033	93.2271
256.037	93.2267
256.039	93.2260
256.044	93.2253
256.046	93.2248
256.047	93.2243
256.051	93.2238
256.054	93.2233
256.060	93.2230
256.065	93.2226
256.070	93.2223
256.076	93.2219
256.082	93.2215
256.088	93.2210
256.093	93.2206
256.098	93.2201
256.101	93.2195
256.103	93.2190
256.105	93.2184
256.105	93.2179
256.104	93.2175
256.103	93.2172
256.103	93.2167
256.105	93.2163
256.108	93.2159
256.111	93.2155
256.115	93.2151
256.118	93.2146
256.120	93.2142
256.123	93.2138
256.126	93.2132
256.131	93.2129
256.138	93.2123
256.147	93.2119
256.154	93.2115
256.158	93.2110
256.160	93.2108
256.159	93.2104
256.158	93.2100
256.156	93.2096
256.155	93.2091
256.154	93.2088
256.156	93.2087
256.156	93.2085
256.154	93.2082
256.148	93.2076
256.140	93.2069
256.133	93.2063
256.127	93.2055
256.115	93.2047
256.106	93.2040
256.101	93.2035
256.096	93.2030
256.095	93.2028
256.099	93.2025
256.105	93.2023
256.113	93.2018
256.119	93.2015
256.122	93.2010
256.125	93.2005
256.128	93.2003
256.129	93.1999
256.133	93.1995
256.136	93.1992
256.137	93.1988
256.133	93.1985
256.131	93.1981
256.130	93.1975
256.128	93.1971
256.127	93.1966
256.125	93.1961
256.122	93.1958
256.116	93.1955
256.111	93.1951
256.107	93.1946
256.101	93.1941
256.097	93.1938
256.096	93.1934
256.094	93.1931
256.091	93.1930
256.088	93.1927
256.085	93.1922
256.083	93.1915
256.086	93.1908
256.091	93.1901
256.099	93.1897
256.108	93.1894
256.116	93.1891
256.124	93.1889
256.131	93.1887
256.135	93.1882
256.137	93.1878
256.138	93.1875
256.134	93.1871
256.131	93.1867
256.127	93.1863
256.126	93.1859
256.125	93.1858
256.125	93.1856
256.126	93.1852
256.115	93.1847
256.100	93.1844
256.080	93.1839
256.055	93.1834
256.028	93.1828
255.996	93.1824
255.968	93.1821
255.945	93.1818
255.925	93.1814
255.911	93.1809
255.899	93.1806
255.891	93.1803
255.885	93.1799
255.883	93.1798
255.880	93.1795
255.876	93.1792
255.871	93.1790
255.868	93.1785
255.865	93.1781
255.864	93.1777
255.863	93.1773
255.858	93.1770
255.851	93.1766
255.847	93.1763
255.845	93.1760
255.844	93.1756
255.849	93.1752
255.856	93.1748
255.865	93.1743
255.874	93.1737
255.881	93.1733
255.888	93.1729
255.888	93.1725
255.888	93.1721
255.891	93.1719
255.891	93.1715
255.898	93.1712
255.908	93.1711
255.921	93.1706
255.935	93.1702
255.950	93.1698
255.958	93.1692
255.966	93.1688
255.972	93.1683
255.972	93.1680
255.972	93.1676
255.971	93.1673
255.968	93.1668
255.957	93.1666
255.946	93.1662
255.938	93.1659
255.935	93.1654
255.942	93.1650
255.958	93.1646
255.981	93.1643
256.005	93.1639
256.026	93.1634
256.047	93.1630
256.061	93.1626
256.072	93.1622
256.077	93.1618
256.084	93.1613
256.087	93.1611
256.086	93.1609
256.085	93.1606
256.086	93.1603
256.090	93.1601
256.094	93.1598
256.099	93.1596
256.100	93.1593
256.101	93.1588
256.099	93.1583
256.096	93.1580
256.096	93.1578
256.094	93.1575
256.090	93.1571
256.081	93.1568
256.070	93.1563
256.057	93.1560
256.046	93.1556
256.033	93.1553
256.024	93.1547
256.018	93.1542
256.014	93.1537
256.011	93.1534
256.009	93.1532
256.004	93.1530
256.000	93.1528
255.998	93.1526
255.999	93.1524
256.001	93.1521
256.003	93.1516
256.004	93.1514
256.001	93.1511
255.999	93.1510
255.995	93.1507
255.991	93.1505
255.984	93.1501
255.980	93.1498
255.980	93.1495
255.982	93.1491
255.985	93.1487
255.991	93.1482
255.993	93.1477
255.995	93.1473
255.994	93.1470
255.990	93.1466
255.988	93.1461
255.989	93.1456
255.994	93.1455
256.004	93.1452
256.013	93.1449
256.014	93.1443
256.004	93.1438
255.985	93.1434
255.962	93.1433
255.936	93.1433
255.912	93.1430
255.889	93.1424
255.870	93.1417
255.867	93.1414
255.875	93.1411
255.891	93.1405
255.913	93.1402
255.940	93.1402
255.963	93.1399
255.984	93.1397
256.001	93.1394
256.016	93.1391
256.026	93.1387
256.033	93.1382
256.040	93.1380
256.046	93.1376
256.050	93.1372
256.052	93.1371
256.058	93.1369
256.061	93.1365
256.061	93.1362
256.059	93.1358
256.056	93.1357
256.055	93.1357
256.058	93.1357
256.064	93.1354
256.067	93.1349
256.070	93.1344
256.072	93.1341
256.071	93.1338
256.068	93.1336
256.065	93.1331
256.063	93.1327
256.062	93.1322
256.061	93.1319
256.057	93.1317
256.056	93.1313
256.059	93.1309
256.057	93.1305
256.059	93.1303
256.056	93.1300
256.053	93.1299
256.050	93.1296
256.050	93.1293
256.051	93.1288
256.055	93.1285
256.061	93.1281
256.064	93.1279
256.068	93.1277
256.072	93.1272
256.076	93.1269
256.083	93.1266
256.086	93.1263
256.092	93.1259
256.096	93.1255
256.100	93.1252
256.103	93.1251
256.104	93.1249
256.104	93.1245
256.098	93.1242
256.092	93.1237
256.083	93.1231
256.073	93.1227
256.062	93.1224
256.053	93.1221
256.046	93.1219
256.038	93.1219
256.031	93.1217
256.024	93.1214
256.018	93.1210
256.012	93.1206
256.008	93.1203
256.000	93.1200
255.988	93.1198
255.974	93.1195
255.958	93.1192
255.943	93.1189
255.932	93.1185
255.920	93.1183
255.905	93.1179
255.892	93.1175
255.879	93.1172
255.872	93.1168
255.869	93.1165
255.868	93.1160
255.867	93.1158
255.867	93.1155
255.867	93.1152
255.868	93.1149
255.868	93.1146
255.870	93.1142
255.872	93.1139
255.872	93.1135
255.873	93.1129
255.875	93.1125
255.876	93.1121
255.878	93.1118
255.878	93.1116
255.878	93.1114
255.878	93.1111
255.879	93.1108
255.883	93.1103
255.891	93.1099
255.904	93.1096
255.916	93.1096
255.925	93.1095
255.931	93.1092
255.931	93.1092
255.928	93.1094
255.924	93.1094
255.919	93.1090
255.914	93.1084
255.911	93.1079
255.912	93.1073
255.914	93.1067
255.917	93.1063
255.918	93.1059
255.917	93.1055
255.912	93.1051
255.907	93.1049
255.904	93.1047
255.906	93.1045
255.911	93.1042
255.916	93.1039
255.918	93.1040
255.918	93.1041
255.919	93.1040
255.920	93.1040
255.921	93.1037
255.920	93.1035
255.920	93.1029
255.920	93.1023
255.918	93.1020
255.918	93.1016
255.915	93.1009
255.910	93.1004
255.904	93.1000
255.896	93.0998
255.887	93.0997
255.882	93.0994
255.877	93.0991
255.876	93.0989
255.878	93.0985
255.883	93.0982
255.888	93.0979
255.893	93.0978
255.895	93.0975
255.897	93.0972
255.901	93.0967
255.905	93.0961
255.910	93.0957
255.913	93.0954
255.914	93.0951
255.914	93.0949
255.912	93.0947
255.914	93.0946
255.915	93.0944
255.918	93.0941
255.919	93.0937
255.921	93.0935
255.923	93.0934
255.922	93.0934
255.922	93.0931
255.920	93.0927
255.918	93.0924
255.915	93.0922
255.911	93.0918
255.908	93.0913
255.907	93.0910
255.908	93.0908
255.911	93.0906
255.911	93.0903
255.911	93.0900
255.910	93.0898
255.905	93.0895
255.901	93.0890
255.899	93.0886
255.894	93.0884
255.893	93.0883
255.893	93.0881
255.895	93.0878
255.897	93.0874
255.898	93.0872
255.902	93.0869
255.903	93.0867
255.901	93.0866
255.892	93.0862
255.885	93.0862
255.876	93.0862
255.868	93.0859
255.858	93.0852
255.852	93.0845
255.849	93.0840
255.847	93.0837
255.844	93.0834
255.839	93.0835
255.833	93.0831
255.828	93.0832
255.825	93.0830
255.824	93.0825
255.820	93.0822
255.818	93.0820
255.817	93.0817
255.818	93.0816
255.823	93.0815
255.824	93.0813
255.822	93.0809
255.822	93.0806
255.819	93.0802
255.816	93.0799
255.813	93.0797
255.812	93.0795
255.812	93.0794
255.812	93.0792
255.812	93.0790
255.811	93.0787
255.815	93.0784
255.826	93.0782
255.840	93.0779
255.856	93.0777
255.867	93.0775
255.879	93.0771
255.889	93.0768
255.901	93.0766
255.917	93.0761
255.938	93.0757
255.960	93.0755
255.984	93.0754
256.005	93.0751
256.025	93.0750
256.043	93.0747
256.059	93.0744
256.072	93.0742
256.083	93.0740
256.095	93.0738
256.104	93.0735
256.112	93.0732
256.117	93.0730
256.121	93.0725
256.121	93.0722
256.122	93.0718
256.122	93.0715
256.115	93.0711
256.109	93.0709
256.102	93.0708
256.099	93.0707
256.096	93.0703
256.094	93.0698
256.093	93.0693
256.091	93.0690
256.091	93.0688
256.088	93.0689
256.085	93.0687
256.085	93.0684
256.085	93.0681
256.081	93.0679
256.079	93.0675
256.070	93.0673
256.057	93.0670
256.035	93.0668
256.005	93.0665
255.972	93.0663
255.942	93.0659
255.913	93.0655
255.888	93.0653
255.866	93.0652
255.850	93.0651
255.833	93.0651
255.823	93.0650
255.816	93.0651
255.812	93.0651
255.812	93.0645
255.813	93.0640
255.818	93.0634
255.824	93.0629
255.831	93.0626
255.843	93.0622
255.857	93.0620
255.878	93.0618
255.902	93.0615
255.923	93.0612
255.942	93.0609
255.954	93.0607
255.960	93.0605
255.964	93.0603
255.966	93.0603
255.966	93.0602
255.967	93.0599
255.967	93.0595
255.971	93.0592
255.972	93.0589
255.974	93.0587
255.975	93.0588
255.978	93.0586
255.982	93.0584
255.990	93.0581
255.998	93.0578
256.007	93.0576
256.019	93.0573
256.027	93.0570
256.033	93.0567
256.038	93.0562
256.043	93.0558
256.046	93.0554
256.051	93.0555
256.059	93.0554
256.066	93.0552
256.073	93.0551
256.082	93.0549
256.089	93.0546
256.097	93.0543
256.105	93.0539
256.113	93.0535
256.118	93.0533
256.121	93.0530
256.122	93.0527
256.122	93.0524
256.122	93.0521
256.122	93.0519
256.123	93.0516
256.124	93.0511
256.126	93.0506
256.130	93.0506
256.135	93.0504
256.141	93.0502
256.147	93.0499
256.153	93.0497
256.153	93.0497
256.155	93.0497
256.156	93.0495
256.158	93.0493
256.159	93.0491
256.161	93.0489
256.160	93.0488
256.161	93.0489
256.162	93.0488
256.160	93.0487
256.159	93.0483
256.160	93.0477
256.159	93.0473
256.164	93.0470
256.169	93.0468
256.174	93.0464
256.178	93.0461
256.183	93.0459
256.185	93.0457
256.187	93.0454
256.187	93.0452
256.184	93.0452
256.181	93.0453
256.178	93.0450
256.172	93.0447
256.167	93.0442
256.166	93.0437
256.164	93.0434
256.163	93.0432
256.162	93.0431
256.167	93.0430
256.173	93.0424
256.177	93.0421
256.181	93.0419
256.181	93.0419
256.180	93.0419
256.178	93.0416
256.176	93.0414
256.172	93.0410
256.172	93.0407
256.172	93.0403
256.167	93.0400
256.165	93.0396
256.162	93.0395
256.160	93.0396
256.157	93.0395
256.150	93.0392
256.145	93.0389
256.138	93.0386
256.133	93.0383
256.129	93.0379
256.126	93.0375
256.124	93.0370
256.116	93.0366
256.107	93.0365
256.099	93.0364
256.090	93.0364
256.086	93.0364
256.087	93.0362
256.092	93.0359
256.102	93.0356
256.112	93.0354
256.120	93.0350
256.127	93.0348
256.138	93.0347
256.147	93.0347
256.153	93.0344
256.157	93.0340
256.160	93.0336
256.159	93.0332
256.158	93.0332
256.156	93.0331
256.151	93.0330
256.147	93.0327
256.146	93.0326
256.146	93.0323
256.149	93.0320
256.154	93.0317
256.156	93.0314
256.164	93.0311
256.172	93.0309
256.175	93.0307
256.176	93.0306
256.177	93.0304
256.174	93.0303
256.168	93.0300
256.164	93.0299
256.161	93.0298
256.159	93.0298
256.154	93.0298
256.146	93.0296
256.141	93.0293
256.135	93.0286
256.129	93.0282
256.123	93.0278
256.116	93.0276
256.112	93.0273
256.109	93.0269
256.108	93.0267
256.106	93.0264
256.106	93.0263
256.105	93.0263
256.103	93.0263
256.100	93.0262
256.099	93.0262
256.101	93.0263
256.103	93.0261
256.104	93.0258
256.105	93.0256
256.105	93.0252
256.105	93.0250
256.106	93.0248
256.107	93.0246
256.108	93.0243
256.108	93.0241
256.108	93.0240
256.113	93.0239
256.118	93.0237
256.121	93.0232
256.124	93.0227
256.129	93.0225
256.132	93.0222
256.139	93.0220
256.142	93.0219
256.145	93.0216
256.148	93.0213
256.151	93.0210
256.152	93.0208
256.154	93.0205
256.154	93.0204
256.154	93.0203
256.156	93.0201
256.157	93.0200
256.156	93.0198
256.155	93.0196
256.155	93.0196
256.154	93.0193
256.154	93.0190
256.153	93.0186
256.151	93.0182
256.151	93.0179
256.150	93.0178
256.151	93.0176
256.153	93.0177
256.153	93.0176
256.152	93.0175
256.154	93.0174
256.156	93.0173
256.156	93.0171
256.156	93.0167
256.157	93.0163
256.157	93.0158
256.158	93.0157
256.158	93.0153
256.159	93.0151
256.159	93.0148
256.158	93.0146
256.158	93.0142
256.157	93.0139
256.154	93.0137
256.151	93.0136
256.148	93.0135
256.145	93.0135
256.142	93.0132
256.138	93.0130
256.134	93.0128
256.132	93.0128
256.128	93.0126
256.126	93.0125
256.126	93.0123
256.126	93.0120
256.127	93.0119
256.131	93.0117
256.135	93.0115
256.139	93.0113
256.142	93.0111
256.146	93.0108
256.149	93.0106
256.153	93.0102
256.155	93.0098
256.157	93.0093
256.158	93.0092
256.160	93.0090
256.161	93.0087
256.161	93.0085
256.161	93.0083
256.161	93.0080
256.163	93.0079
256.165	93.0077
256.167	93.0076
256.169	93.0073
256.172	93.0071
256.172	93.0068
256.172	93.0065
256.168	93.0064
256.165	93.0064
256.164	93.0064
256.167	93.0063
256.171	93.0061
256.178	93.0059
256.182	93.0054
256.185	93.0049
256.185	93.0043
256.185	93.0038
256.183	93.0036
256.184	93.0035
256.185	93.0033
256.187	93.0033
256.189	93.0032
256.189	93.0031
256.190	93.0028
256.191	93.0028
256.191	93.0026
256.193	93.0024
256.193	93.0025
256.194	93.0025
256.193	93.0024
256.191	93.0023
256.189	93.0020
256.186	93.0018
256.184	93.0015
256.181	93.0011
256.176	93.0008
256.168	93.0006
256.162	93.0004
256.154	93.0001
256.150	92.9999
256.145	92.9998
256.140	92.9996
256.136	92.9993
256.132	92.9991
256.129	92.9989
256.127	92.9989
256.125	92.9987
256.125	92.9987
256.127	92.9987
256.131	92.9987
256.138	92.9984
256.145	92.9981
256.149	92.9979
256.151	92.9979
256.148	92.9979
256.138	92.9976
256.129	92.9972
256.119	92.9968
256.112	92.9966
256.110	92.9963
256.110	92.9962
256.115	92.9962
256.120	92.9959
256.124	92.9958
256.133	92.9956
256.141	92.9953
256.149	92.9951
256.155	92.9947
256.164	92.9943
256.168	92.9941
256.171	92.9938
256.174	92.9937
256.174	92.9936
256.174	92.9933
256.169	92.9932
256.165	92.9931
256.156	92.9931
256.145	92.9931
256.135	92.9929
256.128	92.9925
256.119	92.9922
256.111	92.9918
256.108	92.9916
256.102	92.9913
256.099	92.9914
256.097	92.9915
256.099	92.9914
256.101	92.9913
256.104	92.9911
256.107	92.9908
256.113	92.9903
256.117	92.9900
256.117	92.9899
256.111	92.9897
256.105	92.9897
256.099	92.9896
256.095	92.9895
256.091	92.9893
256.087	92.9892
256.087	92.9891
256.089	92.9890
256.092	92.9888
256.097	92.9888
256.100	92.9886
256.104	92.9883
256.106	92.9880
256.106	92.9879
256.107	92.9877
256.107	92.9875
256.103	92.9872
256.104	92.9871
256.105	92.9869
256.109	92.9867
256.116	92.9865
256.121	92.9861
256.125	92.9860
256.128	92.9863
256.132	92.9863
256.137	92.9861
256.140	92.9858
256.146	92.9856
256.146	92.9854
256.148	92.9852
256.151	92.9850
256.152	92.9846
256.154	92.9843
256.155	92.9840
256.155	92.9839
256.154	92.9838
256.151	92.9835
256.152	92.9834
256.151	92.9833
256.151	92.9831
256.149	92.9830
256.147	92.9829
256.141	92.9828
256.138	92.9824
256.135	92.9821
256.131	92.9817
256.129	92.9814
256.127	92.9812
256.125	92.9809
256.124	92.9809
256.124	92.9807
256.124	92.9807
256.123	92.9806
256.123	92.9805
256.122	92.9804
256.120	92.9802
256.118	92.9801
256.113	92.9799
256.110	92.9797
256.107	92.9795
256.105	92.9795
256.102	92.9793
256.099	92.9792
256.095	92.9790
256.094	92.9788
256.090	92.9788
256.089	92.9788
256.088	92.9787
256.086	92.9785
256.085	92.9783
256.083	92.9781
256.083	92.9777
256.086	92.9773
256.086	92.9770
256.087	92.9768
256.089	92.9764
256.090	92.9764
256.087	92.9764
256.085	92.9763
256.085	92.9761
256.083	92.9759
256.083	92.9757
256.084	92.9754
256.084	92.9751
256.082	92.9748
256.082	92.9746
256.082	92.9744
256.086	92.9742
256.087	92.9742
256.089	92.9739
256.088	92.9735
256.089	92.9733
256.091	92.9731
256.094	92.9727
256.095	92.9725
256.097	92.9724
256.096	92.9724
256.096	92.9723
256.095	92.9722
256.093	92.9720
256.093	92.9716
256.091	92.9714
256.086	92.9711
256.082	92.9710
256.076	92.9710
256.073	92.9710
256.071	92.9708
256.072	92.9706
256.075	92.9704
256.080	92.9701
256.085	92.9699
256.088	92.9697
256.091	92.9697
256.093	92.9697
256.093	92.9696
256.092	92.9692
256.091	92.9690
256.088	92.9688
256.084	92.9687
256.079	92.9687
256.072	92.9684
256.062	92.9682
256.049	92.9679
256.038	92.9677
256.023	92.9674
256.013	92.9671
256.001	92.9669
255.991	92.9667
255.982	92.9666
255.974	92.9664
255.966	92.9663
255.959	92.9660
255.955	92.9659
255.952	92.9657
255.948	92.9656
255.943	92.9653
255.940	92.9649
255.939	92.9648
255.939	92.9646
255.940	92.9644
255.941	92.9641
255.941	92.9639
255.939	92.9637
255.938	92.9636
255.938	92.9634
255.937	92.9633
255.937	92.9630
255.937	92.9629
255.944	92.9628
255.949	92.9625
255.954	92.9626
255.957	92.9629
255.960	92.9629
255.961	92.9625
255.963	92.9622
255.963	92.9620
255.965	92.9616
255.965	92.9613
255.969	92.9608
255.968	92.9605
255.971	92.9604
255.972	92.9602
255.976	92.9600
255.982	92.9597
255.989	92.9594
255.995	92.9589
256.001	92.9587
256.003	92.9586
256.006	92.9587
256.012	92.9588
256.019	92.9585
256.026	92.9584
256.033	92.9583
256.037	92.9583
256.040	92.9582
256.042	92.9579
256.045	92.9578
256.051	92.9575
256.056	92.9573
256.063	92.9572
256.072	92.9569
256.079	92.9568
256.090	92.9566
256.100	92.9564
256.111	92.9564
256.119	92.9563
256.128	92.9564
256.136	92.9562
256.145	92.9561
256.151	92.9560
256.155	92.9557
256.158	92.9553
256.160	92.9548
256.161	92.9544
256.160	92.9543
256.159	92.9541
256.157	92.9539
256.155	92.9538
256.152	92.9536
256.147	92.9535
256.139	92.9535
256.132	92.9534
256.123	92.9531
256.115	92.9529
256.107	92.9528
256.104	92.9526
256.100	92.9524
256.097	92.9523
256.094	92.9522
256.093	92.9521
256.096	92.9520
256.100	92.9519
256.104	92.9517
256.105	92.9514
256.110	92.9511
256.115	92.9511
256.118	92.9509
256.121	92.9507
256.123	92.9501
256.123	92.9498
256.124	92.9497
256.124	92.9496
256.125	92.9493
256.125	92.9491
256.125	92.9490
256.125	92.9488
256.125	92.9486
256.124	92.9485
256.123	92.9482
256.122	92.9483
256.121	92.9483
256.120	92.9483
256.115	92.9482
256.112	92.9479
256.109	92.9478
256.109	92.9477
256.111	92.9474
256.110	92.9470
256.109	92.9467
256.108	92.9466
256.113	92.9463
256.115	92.9461
256.117	92.9459
256.119	92.9457
256.120	92.9457
256.121	92.9456
256.123	92.9454
256.124	92.9452
256.124	92.9452
256.125	92.9450
256.123	92.9448
256.122	92.9445
256.120	92.9442
256.114	92.9441
256.111	92.9439
256.108	92.9438
256.103	92.9437
256.097	92.9436
256.090	92.9434
256.083	92.9433
256.079	92.9431
256.077	92.9426
256.076	92.9424
256.078	92.9423
256.080	92.9423
256.086	92.9422
256.089	92.9421
256.093	92.9420
256.097	92.9418
256.097	92.9415
256.097	92.9414
256.094	92.9410
256.090	92.9406
256.084	92.9405
256.078	92.9404
256.076	92.9401
256.073	92.9400
256.072	92.9398
256.070	92.9396
256.070	92.9395
256.070	92.9395
256.070	92.9393
256.070	92.9390
256.070	92.9390
256.070	92.9388
256.071	92.9387
256.071	92.9385
256.071	92.9384
256.072	92.9381
256.073	92.9378
256.074	92.9377
256.076	92.9376
256.083	92.9373
256.088	92.9368
256.093	92.9366
256.098	92.9364
256.102	92.9363
256.103	92.9362
256.100	92.9361
256.096	92.9359
256.089	92.9359
256.082	92.9359
256.078	92.9356
256.074	92.9356
256.073	92.9356
256.073	92.9355
256.075	92.9354
256.075	92.9351
256.075	92.9348
256.073	92.9346
256.070	92.9345
256.068	92.9343
256.061	92.9342
256.052	92.9341
256.046	92.9338
256.042	92.9335
256.039	92.9334
256.040	92.9333
256.045	92.9333
256.049	92.9335
256.054	92.9337
256.060	92.9335
256.065	92.9333
256.069	92.9329
256.070	92.9326
256.072	92.9323
256.073	92.9321
256.074	92.9319
256.074	92.9319
256.076	92.9317
256.077	92.9312
256.080	92.9309
256.082	92.9306
256.084	92.9307
256.086	92.9307
256.090	92.9306
256.091	92.9306
256.092	92.9305
256.089	92.9303
256.087	92.9300
256.085	92.9297
256.084	92.9295
256.080	92.9292
256.080	92.9290
256.081	92.9290
256.080	92.9291
256.081	92.9289
256.085	92.9287
256.087	92.9285
256.094	92.9283
256.100	92.9282
256.104	92.9281
256.111	92.9280
256.116	92.9278
256.116	92.9279
256.111	92.9280
256.106	92.9281
256.102	92.9282
256.098	92.9281
256.095	92.9278
256.093	92.9274
256.090	92.9270
256.086	92.9266
256.088	92.9263
256.090	92.9264
256.091	92.9263
256.093	92.9263
256.097	92.9261
256.101	92.9258
256.103	92.9255
256.105	92.9253
256.106	92.9250
256.106	92.9247
256.106	92.9245
256.107	92.9243
256.109	92.9243
256.114	92.9242
256.117	92.9241
256.119	92.9239
256.120	92.9237
256.118	92.9234
256.118	92.9232
256.112	92.9229
256.110	92.9227
256.108	92.9226
256.107	92.9225
256.107	92.9225
256.105	92.9225
256.103	92.9222
256.104	92.9220
256.106	92.9217
256.108	92.9216
256.112	92.9215
256.110	92.9213
256.110	92.9212
256.108	92.9214
256.108	92.9214
256.108	92.9213
256.112	92.9211
256.116	92.9208
256.120	92.9207
256.122	92.9204
256.123	92.9202
256.124	92.9200
256.125	92.9198
256.127	92.9196
256.128	92.9194
256.127	92.9194
256.126	92.9193
256.127	92.9192
256.126	92.9189
256.127	92.9185
256.128	92.9183
256.129	92.9180
256.131	92.9178
256.130	92.9179
256.129	92.9179
256.127	92.9181
256.125	92.9180
256.120	92.9178
256.113	92.9172
256.108	92.9167
256.105	92.9164
256.105	92.9163
256.105	92.9161
256.106	92.9160
256.108	92.9160
256.114	92.9160
256.118	92.9160
256.120	92.9159
256.121	92.9156
256.122	92.9153
256.122	92.9150
256.120	92.9149
256.120	92.9146
256.114	92.9144
256.113	92.9143
256.110	92.9143
256.108	92.9142
256.108	92.9141
256.110	92.9137
256.115	92.9136
256.119	92.9134
256.122	92.9132
256.123	92.9130
256.122	92.9126
256.116	92.9123
256.111	92.9122
256.104	92.9122
256.099	92.9120
256.096	92.9118
256.095	92.9117
256.093	92.9116
256.097	92.9113
256.100	92.9110
256.102	92.9108
256.105	92.9107
256.113	92.9106
256.119	92.9103
256.122	92.9104
256.125	92.9104
256.127	92.9105
256.128	92.9105
256.126	92.9103
256.126	92.9101
256.124	92.9099
256.119	92.9097
256.113	92.9095
256.110	92.9094
256.107	92.9092
256.105	92.9092
256.103	92.9092
256.104	92.9090
256.104	92.9090
256.105	92.9090
256.106	92.9088
256.106	92.9086
256.107	92.9085
256.107	92.9083
256.108	92.9081
256.107	92.9079
256.106	92.9079
256.107	92.9081
256.107	92.9079
256.113	92.9077
256.119	92.9073
256.123	92.9071
256.127	92.9070
256.132	92.9068
256.135	92.9067
256.139	92.9064
256.141	92.9063
256.141	92.9061
256.139	92.9059
256.139	92.9056
256.137	92.9051
256.138	92.9049
256.139	92.9048
256.140	92.9046
256.143	92.9045
256.143	92.9046
256.143	92.9048
256.140	92.9047
256.138	92.9046
256.138	92.9045
256.135	92.9042
256.133	92.9040
256.130	92.9039
256.126	92.9038
256.116	92.9035
256.107	92.9033
256.099	92.9031
256.092	92.9030
256.088	92.9031
256.086	92.9029
256.083	92.9027
256.077	92.9025
256.071	92.9022
256.060	92.9020
256.049	92.9018
256.036	92.9016
256.023	92.9015
256.011	92.9015
256.001	92.9014
255.994	92.9012
255.989	92.9009
255.986	92.9006
255.985	92.9005
255.982	92.9002
255.978	92.9001
255.973	92.9000
255.965	92.9000
255.954	92.9000
255.944	92.9000
255.934	92.9000
255.925	92.9000
255.921	92.9001
255.918	92.8999
255.918	92.8998
255.919	92.8995
255.925	92.8991
255.934	92.8988
255.942	92.8984
255.949	92.8983
255.955	92.8982
255.960	92.8980
255.962	92.8979
255.962	92.8976
255.964	92.8976
255.963	92.8974
255.962	92.8974
255.964	92.8974
255.965	92.8973
255.966	92.8973
255.966	92.8973
255.968	92.8973
255.970	92.8970
255.972	92.8966
255.975	92.8965
255.972	92.8964
255.972	92.8963
255.969	92.8965
255.966	92.8965
255.964	92.8965
255.958	92.8965
255.950	92.8963
255.945	92.8959
255.946	92.8955
255.942	92.8951
255.939	92.8947
255.936	92.8945
255.933	92.8942
255.929	92.8943
255.924	92.8942
255.919	92.8942
255.914	92.8940
255.913	92.8938
255.913	92.8938
255.914	92.8937
255.916	92.8937
255.918	92.8934
255.922	92.8931
255.926	92.8931
255.929	92.8929
255.924	92.8927
255.923	92.8925
255.917	92.8923
255.913	92.8923
255.913	92.8922
255.915	92.8920
255.916	92.8918
255.917	92.8913
255.917	92.8912
255.918	92.8911
255.917	92.8912
255.918	92.8911
255.920	92.8910
255.926	92.8911
255.936	92.8910
255.951	92.8908
255.971	92.8907
255.988	92.8904
256.005	92.8902
