Filename:	D:\Users\Thermal_Users\LeBlanc\Cu ink 8-10-16.tg1d

Time (min)	Weight (mg)
0.000	67.4989
1.667e-002	67.4978
3.333e-002	67.4984
5.000e-002	67.5072
6.667e-002	67.5118
8.333e-002	67.5114
1.000e-001	67.5066
0.117	67.5105
0.133	67.5135
0.150	67.5119
0.167	67.5065
0.183	67.5027
0.200	67.4997
0.217	67.5001
0.233	67.4991
0.250	67.4996
0.267	67.5044
0.283	67.5056
0.300	67.5054
0.317	67.5015
0.333	67.5015
0.350	67.5007
0.367	67.4998
0.383	67.4922
0.400	67.4811
0.417	67.4811
0.433	67.4886
0.450	67.4958
0.467	67.4969
0.483	67.4997
0.500	67.4989
0.517	67.4958
0.533	67.4984
0.550	67.5000
0.567	67.5020
0.583	67.5048
0.600	67.5014
0.617	67.4963
0.633	67.4964
0.650	67.4938
0.667	67.4904
0.683	67.4923
0.700	67.4928
0.717	67.4915
0.733	67.4906
0.750	67.4905
0.767	67.4902
0.783	67.4929
0.800	67.4989
0.817	67.5028
0.833	67.5032
0.850	67.5021
0.867	67.4963
0.883	67.4915
0.900	67.4893
0.917	67.4922
0.933	67.4963
0.950	67.4926
0.967	67.4851
0.983	67.4790
1.000	67.4748
1.017	67.4746
1.033	67.4793
1.050	67.4793
1.067	67.4773
1.083	67.4870
1.100	67.4974
1.117	67.5077
1.133	67.5115
1.150	67.5092
1.167	67.5066
1.183	67.5058
1.200	67.5065
1.217	67.5073
1.233	67.5072
1.250	67.5061
1.267	67.5052
1.283	67.5043
1.300	67.5044
1.317	67.5028
1.333	67.5005
1.350	67.4937
1.367	67.4888
1.383	67.4791
1.400	67.4663
1.417	67.4560
1.433	67.4455
1.450	67.4359
1.467	67.4282
1.483	67.4251
1.500	67.4254
1.517	67.4291
1.533	67.4309
1.550	67.4325
1.567	67.4311
1.583	67.4271
1.600	67.4130
1.617	67.4032
1.633	67.3986
1.650	67.3980
1.667	67.3942
1.683	67.3956
1.700	67.3980
1.717	67.3985
1.733	67.3934
1.750	67.3887
1.767	67.3846
1.783	67.3790
1.800	67.3756
1.817	67.3705
1.833	67.3670
1.850	67.3586
1.867	67.3508
1.883	67.3395
1.900	67.3272
1.917	67.3151
1.933	67.3034
1.950	67.2902
1.967	67.2774
1.983	67.2681
2.000	67.2604
2.017	67.2493
2.033	67.2295
2.050	67.2086
2.067	67.1876
2.083	67.1635
2.100	67.1349
2.117	67.1068
2.133	67.0724
2.150	67.0364
2.167	66.9953
2.183	66.9482
2.200	66.8898
2.217	66.8253
2.233	66.7538
2.250	66.6812
2.267	66.6033
2.283	66.5163
2.300	66.4204
2.317	66.3141
2.333	66.2002
2.350	66.0795
2.367	65.9457
2.383	65.8016
2.400	65.6462
2.417	65.4871
2.433	65.3200
2.450	65.1476
2.467	64.9684
2.483	64.7823
2.500	64.6074
2.517	64.4467
2.533	64.2995
2.550	64.1645
2.567	64.0513
2.583	63.9616
2.600	63.8841
2.617	63.8197
2.633	63.7625
2.650	63.7079
2.667	63.6610
2.683	63.6266
2.700	63.6015
2.717	63.5785
2.733	63.5531
2.750	63.5329
2.767	63.5117
2.783	63.4985
2.800	63.4841
2.817	63.4731
2.833	63.4538
2.850	63.4313
2.867	63.4268
2.883	63.4025
2.900	63.3677
2.917	63.3334
2.933	63.3122
2.950	63.2941
2.967	63.2674
2.983	63.2450
3.000	63.2227
3.017	63.2033
3.033	63.1836
3.050	63.1681
3.067	63.1611
3.083	63.1468
3.100	63.1284
3.117	63.1059
3.133	63.0893
3.150	63.0710
3.167	63.0572
3.183	63.0497
3.200	63.0499
3.217	63.0483
3.233	63.0506
3.250	63.0518
3.267	63.0508
3.283	63.0493
3.300	63.0504
3.317	63.0580
3.333	63.0712
3.350	63.1037
3.367	63.1284
3.383	63.1328
3.400	63.1232
3.417	63.1164
3.433	63.1218
3.450	63.1239
3.467	63.1102
3.483	63.0775
3.500	63.0451
3.517	63.0627
3.533	63.1052
3.550	63.1388
3.567	63.1592
3.583	63.1683
3.600	63.1679
3.617	63.1593
3.633	63.1452
3.650	63.1266
3.667	63.1034
3.683	63.0779
3.700	63.0549
3.717	63.0502
3.733	63.0558
3.750	63.0682
3.767	63.0814
3.783	63.1001
3.800	63.1083
3.817	63.1121
3.833	63.1249
3.850	63.1385
3.867	63.1490
3.883	63.1568
3.900	63.1593
3.917	63.1594
3.933	63.1678
3.950	63.1830
3.967	63.1926
3.983	63.2001
4.000	63.2072
4.017	63.2245
4.033	63.2614
4.050	63.2656
4.067	63.2572
4.083	63.2503
4.100	63.2430
4.117	63.2404
4.133	63.2452
4.150	63.2522
4.167	63.2671
4.183	63.2775
4.200	63.3018
4.217	63.3342
4.233	63.3592
4.250	63.3703
4.267	63.3685
4.283	63.3604
4.300	63.3469
4.317	63.3373
4.333	63.3331
4.350	63.3331
4.367	63.3387
4.383	63.3456
4.400	63.3610
4.417	63.3710
4.433	63.3802
4.450	63.3851
4.467	63.3809
4.483	63.3787
4.500	63.3844
4.517	63.3881
4.533	63.3994
4.550	63.4085
4.567	63.4082
4.583	63.4071
4.600	63.4045
4.617	63.4124
4.633	63.4370
4.650	63.4575
4.667	63.4614
4.683	63.4606
4.700	63.4687
4.717	63.4808
4.733	63.4908
4.750	63.4967
4.767	63.4983
4.783	63.5004
4.800	63.5018
4.817	63.5026
4.833	63.5094
4.850	63.5128
4.867	63.5175
4.883	63.5245
4.900	63.5289
4.917	63.5274
4.933	63.5254
4.950	63.5311
4.967	63.5367
4.983	63.5370
5.000	63.5397
5.017	63.5490
5.033	63.5478
5.050	63.5460
5.067	63.5526
5.083	63.5604
5.100	63.5731
5.117	63.5892
5.133	63.5993
5.150	63.6084
5.167	63.6162
5.183	63.6250
5.200	63.6283
5.217	63.6241
5.233	63.6359
5.250	63.6490
5.267	63.6583
5.283	63.6700
5.300	63.6705
5.317	63.6733
5.333	63.6859
5.350	63.6947
5.367	63.6981
5.383	63.6925
5.400	63.6880
5.417	63.6987
5.433	63.7141
5.450	63.7211
5.467	63.7321
5.483	63.7522
5.500	63.7683
5.517	63.7699
5.533	63.7787
5.550	63.7961
5.567	63.8093
5.583	63.8178
5.600	63.8186
5.617	63.8305
5.633	63.8386
5.650	63.8405
5.667	63.8544
5.683	63.8681
5.700	63.8693
5.717	63.8683
5.733	63.8713
5.750	63.8813
5.767	63.8960
5.783	63.9079
5.800	63.9160
5.817	63.9296
5.833	63.9406
5.850	63.9467
5.867	63.9565
5.883	63.9667
5.900	63.9742
5.917	63.9813
5.933	63.9899
5.950	63.9954
5.967	63.9971
5.983	63.9947
6.000	63.9896
6.017	63.9985
6.033	64.0170
6.050	64.0381
6.067	64.0494
6.083	64.0540
6.100	64.0533
6.117	64.0513
6.133	64.0565
6.150	64.0680
6.167	64.0783
6.183	64.0841
6.200	64.0945
6.217	64.1040
6.233	64.1103
6.250	64.1143
6.267	64.1174
6.283	64.1221
6.300	64.1266
6.317	64.1315
6.333	64.1384
6.350	64.1444
6.367	64.1492
6.383	64.1525
6.400	64.1613
6.417	64.1741
6.433	64.1937
6.450	64.2055
6.467	64.2164
6.483	64.2182
6.500	64.2166
6.517	64.2148
6.533	64.2159
6.550	64.2207
6.567	64.2267
6.583	64.2344
6.600	64.2446
6.617	64.2682
6.633	64.2916
6.650	64.3028
6.667	64.3058
6.683	64.3063
6.700	64.3089
6.717	64.3077
6.733	64.3056
6.750	64.3060
6.767	64.3160
6.783	64.3548
6.800	64.4028
6.817	64.4436
6.833	64.4704
6.850	64.4722
6.867	64.4682
6.883	64.4680
6.900	64.4708
6.917	64.4745
6.933	64.4796
6.950	64.4858
6.967	64.4909
6.983	64.4944
7.000	64.4969
7.017	64.4986
7.033	64.5002
7.050	64.5030
7.067	64.5072
7.083	64.5144
7.100	64.5231
7.117	64.5311
7.133	64.5372
7.150	64.5426
7.167	64.5477
7.183	64.5545
7.200	64.5668
7.217	64.5770
7.233	64.5837
7.250	64.5898
7.267	64.5957
7.283	64.6020
7.300	64.6079
7.317	64.6130
7.333	64.6181
7.350	64.6235
7.367	64.6285
7.383	64.6339
7.400	64.6399
7.417	64.6468
7.433	64.6504
7.450	64.6532
7.467	64.6586
7.483	64.6666
7.500	64.6745
7.517	64.6863
7.533	64.7023
7.550	64.7111
7.567	64.7172
7.583	64.7400
7.600	64.7627
7.617	64.7802
7.633	64.7918
7.650	64.8011
7.667	64.8112
7.683	64.8228
7.700	64.8340
7.717	64.8427
7.733	64.8488
7.750	64.8568
7.767	64.8650
7.783	64.8686
7.800	64.8766
7.817	64.8846
7.833	64.8939
7.850	64.8993
7.867	64.8951
7.883	64.8923
7.900	64.8963
7.917	64.9035
7.933	64.9100
7.950	64.9146
7.967	64.9202
7.983	64.9297
8.000	64.9373
8.017	64.9422
8.033	64.9463
8.050	64.9517
8.067	64.9597
8.083	64.9699
8.100	64.9785
8.117	64.9845
8.133	64.9947
8.150	65.0065
8.167	65.0175
8.183	65.0309
8.200	65.0397
8.217	65.0426
8.233	65.0484
8.250	65.0545
8.267	65.0590
8.283	65.0651
8.300	65.0712
8.317	65.0828
8.333	65.0925
8.350	65.0994
8.367	65.1061
8.383	65.1134
8.400	65.1231
8.417	65.1325
8.433	65.1453
8.450	65.1529
8.467	65.1588
8.483	65.1664
8.500	65.1733
8.517	65.1802
8.533	65.1859
8.550	65.1937
8.567	65.2009
8.583	65.2097
8.600	65.2132
8.617	65.2211
8.633	65.2326
8.650	65.2428
8.667	65.2539
8.683	65.2626
8.700	65.2715
8.717	65.2780
8.733	65.2861
8.750	65.2924
8.767	65.2987
8.783	65.3043
8.800	65.3128
8.817	65.3223
8.833	65.3307
8.850	65.3405
8.867	65.3477
8.883	65.3534
8.900	65.3559
8.917	65.3511
8.933	65.3645
8.950	65.3954
8.967	65.4190
8.983	65.4259
9.000	65.4312
9.017	65.4388
9.033	65.4487
9.050	65.4591
9.067	65.4681
9.083	65.4763
9.100	65.4835
9.117	65.4877
9.133	65.4876
9.150	65.4890
9.167	65.4940
9.183	65.5045
9.200	65.5205
9.217	65.5357
9.233	65.5494
9.250	65.5626
9.267	65.5671
9.283	65.5698
9.300	65.5801
9.317	65.5930
9.333	65.6066
9.350	65.6203
9.367	65.6317
9.383	65.6353
9.400	65.6396
9.417	65.6478
9.433	65.6568
9.450	65.6666
9.467	65.6776
9.483	65.6882
9.500	65.6964
9.517	65.6943
9.533	65.6815
9.550	65.6686
9.567	65.6589
9.583	65.6573
9.600	65.6609
9.617	65.6641
9.633	65.6726
9.650	65.6782
9.667	65.6853
9.683	65.6912
9.700	65.6980
9.717	65.7058
9.733	65.7136
9.750	65.7204
9.767	65.7239
9.783	65.7269
9.800	65.7334
9.817	65.7466
9.833	65.7535
9.850	65.7651
9.867	65.7788
9.883	65.7970
9.900	65.8105
9.917	65.8237
9.933	65.8333
9.950	65.8483
9.967	65.8625
9.983	65.8714
10.000	65.8814
10.017	65.8899
10.033	65.8962
10.050	65.9000
10.067	65.9058
10.083	65.9136
10.100	65.9159
10.117	65.9241
10.133	65.9351
10.150	65.9416
10.167	65.9494
10.183	65.9604
10.200	65.9744
10.217	65.9895
10.233	66.0057
10.250	66.0223
10.267	66.0353
10.283	66.0425
10.300	66.0441
10.317	66.0469
10.333	66.0510
10.350	66.0572
10.367	66.0637
10.383	66.0753
10.400	66.0850
10.417	66.0928
10.433	66.1036
10.450	66.1138
10.467	66.1164
10.483	66.1222
10.500	66.1319
10.517	66.1447
10.533	66.1559
10.550	66.1637
10.567	66.1663
10.583	66.1688
10.600	66.1760
10.617	66.1830
10.633	66.1862
10.650	66.1843
10.667	66.1875
10.683	66.1934
10.700	66.2026
10.717	66.2149
10.733	66.2228
10.750	66.2278
10.767	66.2321
10.783	66.2389
10.800	66.2440
10.817	66.2398
10.833	66.2494
10.850	66.2698
10.867	66.2844
10.883	66.2945
10.900	66.3001
10.917	66.3121
10.933	66.3183
10.950	66.3253
10.967	66.3264
10.983	66.3272
11.000	66.3349
11.017	66.3400
11.033	66.3398
11.050	66.3342
11.067	66.3366
11.083	66.3449
11.100	66.3574
11.117	66.3732
11.133	66.3868
11.150	66.3960
11.167	66.4053
11.183	66.4165
11.200	66.4282
11.217	66.4354
11.233	66.4409
11.250	66.4482
11.267	66.4559
11.283	66.4621
11.300	66.4697
11.317	66.4750
11.333	66.4793
11.350	66.4878
11.367	66.4981
11.383	66.5065
11.400	66.5129
11.417	66.5174
11.433	66.5246
11.450	66.5333
11.467	66.5353
11.483	66.5348
11.500	66.5378
11.517	66.5429
11.533	66.5463
11.550	66.5542
11.567	66.5668
11.583	66.5802
11.600	66.5922
11.617	66.6009
11.633	66.6087
11.650	66.6174
11.667	66.6248
11.683	66.6279
11.700	66.6294
11.717	66.6327
11.733	66.6383
11.750	66.6429
11.767	66.6492
11.783	66.6597
11.800	66.6692
11.817	66.6766
11.833	66.6845
11.850	66.6915
11.867	66.6967
11.883	66.7030
11.900	66.7106
11.917	66.7224
11.933	66.7321
11.950	66.7404
11.967	66.7466
11.983	66.7552
12.000	66.7645
12.017	66.7697
12.033	66.7699
12.050	66.7710
12.067	66.7834
12.083	66.8035
12.100	66.8211
12.117	66.8191
12.133	66.8053
12.150	66.7992
12.167	66.7926
12.183	66.7836
12.200	66.7796
12.217	66.7810
12.233	66.7857
12.250	66.7915
12.267	66.8018
12.283	66.8139
12.300	66.8231
12.317	66.8291
12.333	66.8348
12.350	66.8383
12.367	66.8430
12.383	66.8496
12.400	66.8558
12.417	66.8623
12.433	66.8683
12.450	66.8766
12.467	66.8845
12.483	66.8922
12.500	66.8992
12.517	66.9050
12.533	66.9107
12.550	66.9176
12.567	66.9257
12.583	66.9324
12.600	66.9379
12.617	66.9452
12.633	66.9506
12.650	66.9556
12.667	66.9614
12.683	66.9667
12.700	66.9743
12.717	66.9854
12.733	66.9959
12.750	67.0030
12.767	67.0074
12.783	67.0131
12.800	67.0196
12.817	67.0259
12.833	67.0325
12.850	67.0481
12.867	67.0665
12.883	67.0763
12.900	67.0805
12.917	67.0839
12.933	67.0894
12.950	67.0988
12.967	67.1099
12.983	67.1190
13.000	67.1237
13.017	67.1287
13.033	67.1336
13.050	67.1397
13.067	67.1431
13.083	67.1465
13.100	67.1541
13.117	67.1628
13.133	67.1699
13.150	67.1736
13.167	67.1798
13.183	67.1848
13.200	67.1898
13.217	67.1943
13.233	67.2011
13.250	67.2087
13.267	67.2176
13.283	67.2230
13.300	67.2292
13.317	67.2395
13.333	67.2501
13.350	67.2559
13.367	67.2617
13.383	67.2672
13.400	67.2720
13.417	67.2767
13.433	67.2817
13.450	67.2876
13.467	67.2936
13.483	67.2984
13.500	67.3014
13.517	67.3051
13.533	67.3069
13.550	67.3135
13.567	67.3221
13.583	67.3322
13.600	67.3417
13.617	67.3464
13.633	67.3474
13.650	67.3551
13.667	67.3687
13.683	67.3776
13.700	67.3802
13.717	67.3868
13.733	67.3922
13.750	67.3950
13.767	67.3994
13.783	67.4071
13.800	67.4073
13.817	67.4078
13.833	67.4180
13.850	67.4288
13.867	67.4401
13.883	67.4471
13.900	67.4537
13.917	67.4577
13.933	67.4626
13.950	67.4691
13.967	67.4771
13.983	67.4796
14.000	67.4797
14.017	67.4863
14.033	67.4972
14.050	67.5060
14.067	67.5115
14.083	67.5131
14.100	67.5141
14.117	67.5189
14.133	67.5196
14.150	67.5226
14.167	67.5258
14.183	67.5317
14.200	67.5363
14.217	67.5415
14.233	67.5475
14.250	67.5551
14.267	67.5672
14.283	67.5748
14.300	67.5797
14.317	67.5855
14.333	67.5933
14.350	67.5984
14.367	67.6058
14.383	67.6132
14.400	67.6184
14.417	67.6243
14.433	67.6310
14.450	67.6362
14.467	67.6414
14.483	67.6476
14.500	67.6502
14.517	67.6549
14.533	67.6616
14.550	67.6673
14.567	67.6735
14.583	67.6793
14.600	67.6847
14.617	67.6891
14.633	67.6925
14.650	67.6940
14.667	67.6997
14.683	67.7046
14.700	67.7100
14.717	67.7168
14.733	67.7227
14.750	67.7279
14.767	67.7340
14.783	67.7426
14.800	67.7511
14.817	67.7577
14.833	67.7579
14.850	67.7616
14.867	67.7696
14.883	67.7698
14.900	67.7722
14.917	67.7755
14.933	67.7822
14.950	67.7921
14.967	67.8024
14.983	67.8126
15.000	67.8200
15.017	67.8242
15.033	67.8281
15.050	67.8315
15.067	67.8377
15.083	67.8443
15.100	67.8561
15.117	67.8630
15.133	67.8665
15.150	67.8676
15.167	67.8683
15.183	67.8712
15.200	67.8768
15.217	67.8853
15.233	67.8946
15.250	67.8995
15.267	67.9068
15.283	67.9119
15.300	67.9193
15.317	67.9247
15.333	67.9331
15.350	67.9431
15.367	67.9525
15.383	67.9647
15.400	67.9743
15.417	67.9750
15.433	67.9753
15.450	67.9818
15.467	67.9892
15.483	67.9924
15.500	67.9958
15.517	68.0029
15.533	68.0099
15.550	68.0186
15.567	68.0259
15.583	68.0283
15.600	68.0335
15.617	68.0376
15.633	68.0401
15.650	68.0432
15.667	68.0484
15.683	68.0545
15.700	68.0629
15.717	68.0675
15.733	68.0723
15.750	68.0803
15.767	68.0860
15.783	68.0880
15.800	68.0880
15.817	68.0913
15.833	68.0968
15.850	68.1055
15.867	68.1148
15.883	68.1203
15.900	68.1245
15.917	68.1291
15.933	68.1339
15.950	68.1357
15.967	68.1404
15.983	68.1441
16.000	68.1523
16.017	68.1684
16.033	68.1803
16.050	68.1836
16.067	68.1891
16.083	68.1957
16.100	68.1978
16.117	68.2008
16.133	68.2046
16.150	68.2041
16.167	68.2027
16.183	68.2101
16.200	68.2176
16.217	68.2242
16.233	68.2261
16.250	68.2296
16.267	68.2356
16.283	68.2433
16.300	68.2472
16.317	68.2562
16.333	68.2674
16.350	68.2822
16.367	68.2923
16.383	68.3005
16.400	68.3037
16.417	68.3136
16.433	68.3204
16.450	68.3255
16.467	68.3314
16.483	68.3285
16.500	68.3273
16.517	68.3298
16.533	68.3341
16.550	68.3405
16.567	68.3488
16.583	68.3562
16.600	68.3651
16.617	68.3710
16.633	68.3686
16.650	68.3725
16.667	68.3842
16.683	68.3846
16.700	68.3885
16.717	68.3927
16.733	68.3999
16.750	68.4101
16.767	68.4232
16.783	68.4308
16.800	68.4402
16.817	68.4456
16.833	68.4519
16.850	68.4607
16.867	68.4715
16.883	68.4767
16.900	68.4800
16.917	68.4832
16.933	68.4887
16.950	68.4919
16.967	68.4949
16.983	68.4986
17.000	68.5020
17.017	68.5065
17.033	68.5129
17.050	68.5196
17.067	68.5251
17.083	68.5302
17.100	68.5345
17.117	68.5382
17.133	68.5428
17.150	68.5487
17.167	68.5528
17.183	68.5528
17.200	68.5554
17.217	68.5574
17.233	68.5589
17.250	68.5607
17.267	68.5580
17.283	68.5587
17.300	68.5628
17.317	68.5681
17.333	68.5739
17.350	68.5772
17.367	68.5827
17.383	68.5896
17.400	68.5952
17.417	68.5974
17.433	68.6023
17.450	68.6075
17.467	68.6119
17.483	68.6157
17.500	68.6202
17.517	68.6325
17.533	68.6431
17.550	68.6472
17.567	68.6493
17.583	68.6545
17.600	68.6576
17.617	68.6603
17.633	68.6668
17.650	68.6737
17.667	68.6762
17.683	68.6806
17.700	68.6857
17.717	68.6947
17.733	68.7028
17.750	68.7082
17.767	68.7120
17.783	68.7134
17.800	68.7179
17.817	68.7235
17.833	68.7271
17.850	68.7264
17.867	68.7316
17.883	68.7392
17.900	68.7450
17.917	68.7462
17.933	68.7490
17.950	68.7539
17.967	68.7593
17.983	68.7642
18.000	68.7691
18.017	68.7773
18.033	68.7827
18.050	68.7889
18.067	68.7923
18.083	68.7993
18.100	68.8071
18.117	68.8149
18.133	68.8214
18.150	68.8274
18.167	68.8282
18.183	68.8290
18.200	68.8338
18.217	68.8378
18.233	68.8371
18.250	68.8436
18.267	68.8513
18.283	68.8574
18.300	68.8599
18.317	68.8635
18.333	68.8728
18.350	68.8793
18.367	68.8841
18.383	68.8859
18.400	68.8880
18.417	68.8872
18.433	68.8865
18.450	68.8887
18.467	68.8959
18.483	68.9070
18.500	68.9144
18.517	68.9175
18.533	68.9204
18.550	68.9299
18.567	68.9357
18.583	68.9389
18.600	68.9416
18.617	68.9444
18.633	68.9479
18.650	68.9545
18.667	68.9579
18.683	68.9605
18.700	68.9638
18.717	68.9696
18.733	68.9757
18.750	68.9814
18.767	68.9817
18.783	68.9841
18.800	68.9885
18.817	68.9867
18.833	68.9839
18.850	68.9886
18.867	68.9942
18.883	69.0022
18.900	69.0142
18.917	69.0215
18.933	69.0210
18.950	69.0161
18.967	69.0040
18.983	68.9838
19.000	68.9694
19.017	68.9666
19.033	68.9625
19.050	68.9601
19.067	68.9426
19.083	68.9258
19.100	68.9129
19.117	68.9200
19.133	68.9362
19.150	68.9505
19.167	68.9612
19.183	68.9697
19.200	68.9762
19.217	68.9809
19.233	68.9851
19.250	68.9890
19.267	68.9930
19.283	68.9973
19.300	69.0016
19.317	69.0042
19.333	68.9956
19.350	68.9937
19.367	68.9934
19.383	68.9988
19.400	69.0051
19.417	69.0106
19.433	69.0160
19.450	69.0214
19.467	69.0243
19.483	69.0278
19.500	69.0342
19.517	69.0409
19.533	69.0473
19.550	69.0531
19.567	69.0577
19.583	69.0609
19.600	69.0644
19.617	69.0681
19.633	69.0721
19.650	69.0754
19.667	69.0782
19.683	69.0805
19.700	69.0830
19.717	69.0861
19.733	69.0894
19.750	69.0934
19.767	69.0973
19.783	69.1005
19.800	69.1029
19.817	69.1045
19.833	69.1056
19.850	69.1070
19.867	69.1015
19.883	69.0743
19.900	69.0478
19.917	69.0295
19.933	69.0195
19.950	69.0148
19.967	69.0129
19.983	69.0120
20.000	69.0127
20.017	69.0137
20.033	69.0159
20.050	69.0188
20.067	69.0228
20.083	69.0264
20.100	69.0292
20.117	69.0305
20.133	69.0320
20.150	69.0336
20.167	69.0361
20.183	69.0450
20.200	69.0804
20.217	69.1204
20.233	69.1516
20.250	69.1724
20.267	69.1836
20.283	69.1715
20.300	69.1388
20.317	69.1095
20.333	69.0913
20.350	69.1017
20.367	69.1298
20.383	69.1558
20.400	69.1749
20.417	69.1875
20.433	69.1935
20.450	69.1948
20.467	69.1955
20.483	69.1972
20.500	69.1987
20.517	69.2001
20.533	69.2026
20.550	69.2058
20.567	69.2094
20.583	69.2131
20.600	69.2176
20.617	69.2215
20.633	69.1991
20.650	69.1688
20.667	69.1455
20.683	69.1314
20.700	69.1244
20.717	69.1226
20.733	69.1241
20.750	69.1278
20.767	69.1330
20.783	69.1393
20.800	69.1457
20.817	69.1528
20.833	69.1588
20.850	69.1642
20.867	69.1844
20.883	69.2223
20.900	69.2564
20.917	69.2810
20.933	69.2981
20.950	69.3101
20.967	69.3189
20.983	69.3260
21.000	69.3316
21.017	69.3353
21.033	69.3391
21.050	69.3435
21.067	69.3484
21.083	69.3539
21.100	69.3593
21.117	69.3634
21.133	69.3750
21.150	69.3690
21.167	69.3701
21.183	69.3751
21.200	69.3804
21.217	69.3856
21.233	69.3901
21.250	69.3943
21.267	69.4231
21.283	69.4319
21.300	69.4290
21.317	69.4244
21.333	69.4208
21.350	69.4190
21.367	69.4189
21.383	69.4182
21.400	69.4190
21.417	69.4209
21.433	69.4189
21.450	69.4129
21.467	69.4200
21.483	69.4296
21.500	69.4379
21.517	69.4456
21.533	69.4719
21.550	69.5140
21.567	69.5555
21.583	69.5863
21.600	69.6084
21.617	69.6242
21.633	69.6355
21.650	69.6436
21.667	69.6495
21.683	69.6541
21.700	69.6576
21.717	69.6592
21.733	69.6604
21.750	69.6624
21.767	69.6658
21.783	69.6697
21.800	69.6736
21.817	69.6774
21.833	69.6813
21.850	69.6853
21.867	69.6888
21.883	69.6916
21.900	69.6940
21.917	69.6965
21.933	69.6995
21.950	69.7030
21.967	69.7067
21.983	69.7101
22.000	69.7128
22.017	69.7144
22.033	69.7157
22.050	69.7176
22.067	69.7200
22.083	69.7226
22.100	69.7245
22.117	69.7261
22.133	69.7276
22.150	69.7294
22.167	69.7312
22.183	69.7332
22.200	69.7358
22.217	69.7389
22.233	69.7428
22.250	69.7472
22.267	69.7513
22.283	69.7547
22.300	69.7573
22.317	69.7595
22.333	69.7617
22.350	69.7645
22.367	69.7674
22.383	69.7708
22.400	69.7747
22.417	69.7788
22.433	69.7828
22.450	69.7864
22.467	69.7897
22.483	69.7929
22.500	69.7961
22.517	69.7990
22.533	69.8022
22.550	69.8054
22.567	69.8086
22.583	69.8114
22.600	69.8135
22.617	69.8155
22.633	69.8179
22.650	69.8203
22.667	69.8218
22.683	69.8228
22.700	69.8235
22.717	69.8238
22.733	69.8238
22.750	69.8235
22.767	69.8237
22.783	69.8242
22.800	69.8255
22.817	69.8272
22.833	69.8287
22.850	69.8301
22.867	69.8313
22.883	69.8330
22.900	69.8349
22.917	69.8363
22.933	69.8372
22.950	69.8379
22.967	69.8391
22.983	69.8405
23.000	69.8423
23.017	69.8444
23.033	69.8467
23.050	69.8496
23.067	69.8532
23.083	69.8563
23.100	69.8575
23.117	69.8581
23.133	69.8591
23.150	69.8604
23.167	69.8617
23.183	69.8634
23.200	69.8658
23.217	69.8680
23.233	69.8701
23.250	69.8718
23.267	69.8734
23.283	69.8748
23.300	69.8758
23.317	69.8765
23.333	69.8777
23.350	69.8795
23.367	69.8812
23.383	69.8825
23.400	69.8837
23.417	69.8855
23.433	69.8877
23.450	69.8902
23.467	69.8921
23.483	69.8941
23.500	69.8959
23.517	69.8971
23.533	69.8980
23.550	69.8987
23.567	69.8987
23.583	69.8987
23.600	69.8991
23.617	69.9002
23.633	69.9021
23.650	69.9048
23.667	69.9076
23.683	69.9099
23.700	69.9118
23.717	69.9135
23.733	69.9149
23.750	69.9160
23.767	69.9168
23.783	69.9181
23.800	69.9200
23.817	69.9226
23.833	69.9262
23.850	69.9302
23.867	69.9337
23.883	69.9370
23.900	69.9404
23.917	69.9440
23.933	69.9472
23.950	69.9498
23.967	69.9522
23.983	69.9546
24.000	69.9574
24.017	69.9601
24.033	69.9620
24.050	69.9637
24.067	69.9656
24.083	69.9677
24.100	69.9703
24.117	69.9731
24.133	69.9754
24.150	69.9764
24.167	69.9768
24.183	69.9772
24.200	69.9775
24.217	69.9780
24.233	69.9785
24.250	69.9794
24.267	69.9809
24.283	69.9826
24.300	69.9841
24.317	69.9854
24.333	69.9871
24.350	69.9902
24.367	69.9938
24.383	69.9978
24.400	70.0019
24.417	70.0059
24.433	70.0089
24.450	70.0117
24.467	70.0144
24.483	70.0169
24.500	70.0193
24.517	70.0217
24.533	70.0247
24.550	70.0286
24.567	70.0325
24.583	70.0364
24.600	70.0392
24.617	70.0423
24.633	70.0455
24.650	70.0488
24.667	70.0520
24.683	70.0548
24.700	70.0573
24.717	70.0577
24.733	70.0590
24.750	70.0607
24.767	70.0634
24.783	70.0667
24.800	70.0706
24.817	70.0745
24.833	70.0782
24.850	70.0822
24.867	70.0857
24.883	70.0890
24.900	70.0925
24.917	70.0963
24.933	70.0999
24.950	70.1037
24.967	70.1073
24.983	70.1111
25.000	70.1147
25.017	70.1182
25.033	70.1217
25.050	70.1252
25.067	70.1283
25.083	70.1310
25.100	70.1329
25.117	70.1339
25.133	70.1347
25.150	70.1350
25.167	70.1350
25.183	70.1349
25.200	70.1348
25.217	70.1342
25.233	70.1340
25.250	70.1348
25.267	70.1364
25.283	70.1380
25.300	70.1386
25.317	70.1387
25.333	70.1390
25.350	70.1397
25.367	70.1402
25.383	70.1412
25.400	70.1429
25.417	70.1448
25.433	70.1468
25.450	70.1486
25.467	70.1498
25.483	70.1503
25.500	70.1503
25.517	70.1507
25.533	70.1516
25.550	70.1528
25.567	70.1548
25.583	70.1573
25.600	70.1599
25.617	70.1625
25.633	70.1650
25.650	70.1678
25.667	70.1708
25.683	70.1732
25.700	70.1747
25.717	70.1758
25.733	70.1770
25.750	70.1785
25.767	70.1619
25.783	70.1249
25.800	70.0948
25.817	70.0740
25.833	70.0709
25.850	70.0725
25.867	70.0774
25.883	70.0818
25.900	70.0848
25.917	70.0868
25.933	70.0877
25.950	70.0878
25.967	70.0869
25.983	70.0862
26.000	70.0859
26.017	70.0857
26.033	70.0855
26.050	70.0848
26.067	70.0840
26.083	70.0833
26.100	70.0828
26.117	70.0822
26.133	70.0819
26.150	70.0813
26.167	70.0807
26.183	70.0798
26.200	70.0790
26.217	70.0782
26.233	70.0778
26.250	70.0775
26.267	70.0762
26.283	70.0744
26.300	70.0767
26.317	70.0983
26.333	70.1237
26.350	70.1433
26.367	70.1566
26.383	70.1657
26.400	70.1721
26.417	70.1767
26.433	70.1806
26.450	70.1843
26.467	70.1878
26.483	70.1907
26.500	70.1935
26.517	70.1963
26.533	70.1981
26.550	70.1988
26.567	70.1994
26.583	70.2008
26.600	70.2031
26.617	70.2060
26.633	70.2087
26.650	70.2111
26.667	70.2131
26.683	70.2151
26.700	70.2172
26.717	70.2194
26.733	70.2217
26.750	70.2240
26.767	70.2266
26.783	70.2293
26.800	70.2323
26.817	70.2353
26.833	70.2375
26.850	70.2390
26.867	70.2402
26.883	70.2420
26.900	70.2449
26.917	70.2478
26.933	70.2508
26.950	70.2533
26.967	70.2556
26.983	70.2581
27.000	70.2613
27.017	70.2647
27.033	70.2676
27.050	70.2706
27.067	70.2728
27.083	70.2742
27.100	70.2745
27.117	70.2744
27.133	70.2751
27.150	70.2765
27.167	70.2778
27.183	70.2791
27.200	70.2800
27.217	70.2805
27.233	70.2812
27.250	70.2817
27.267	70.2820
27.283	70.2822
27.300	70.2824
27.317	70.2830
27.333	70.2837
27.350	70.2851
27.367	70.2869
27.383	70.2887
27.400	70.2909
27.417	70.2935
27.433	70.2966
27.450	70.2996
27.467	70.3022
27.483	70.3049
27.500	70.3075
27.517	70.3102
27.533	70.3128
27.550	70.3150
27.567	70.3167
27.583	70.3175
27.600	70.3176
27.617	70.3174
27.633	70.3171
27.650	70.3159
27.667	70.3135
27.683	70.3102
27.700	70.3066
27.717	70.3034
27.733	70.3011
27.750	70.3000
27.767	70.2999
27.783	70.3005
27.800	70.3014
27.817	70.3023
27.833	70.3036
27.850	70.3056
27.867	70.3079
27.883	70.3104
27.900	70.3134
27.917	70.3168
27.933	70.3198
27.950	70.3226
27.967	70.3251
27.983	70.3273
28.000	70.3298
28.017	70.3320
28.033	70.3337
28.050	70.3346
28.067	70.3354
28.083	70.3363
28.100	70.3369
28.117	70.3374
28.133	70.3374
28.150	70.3374
28.167	70.3376
28.183	70.3387
28.200	70.3399
28.217	70.3413
28.233	70.3424
28.250	70.3430
28.267	70.3433
28.283	70.3441
28.300	70.3452
28.317	70.3467
28.333	70.3485
28.350	70.3503
28.367	70.3520
28.383	70.3535
28.400	70.3548
28.417	70.3560
28.433	70.3573
28.450	70.3589
28.467	70.3602
28.483	70.3612
28.500	70.3621
28.517	70.3620
28.533	70.3609
28.550	70.3596
28.567	70.3583
28.583	70.3570
28.600	70.3565
28.617	70.3564
28.633	70.3571
28.650	70.3582
28.667	70.3591
28.683	70.3596
28.700	70.3594
28.717	70.3590
28.733	70.3575
28.750	70.3555
28.767	70.3525
28.783	70.3490
28.800	70.3455
28.817	70.3423
28.833	70.3393
28.850	70.3366
28.867	70.3237
28.883	70.2973
28.900	70.2727
28.917	70.2538
28.933	70.2408
28.950	70.2317
28.967	70.2253
28.983	70.2196
29.000	70.2136
29.017	70.2093
29.033	70.2069
29.050	70.2055
29.067	70.2052
29.083	70.2053
29.100	70.2062
29.117	70.2073
29.133	70.2091
29.150	70.2097
29.167	70.2103
29.183	70.2112
29.200	70.2125
29.217	70.2139
29.233	70.2152
29.250	70.2159
29.267	70.2169
29.283	70.2187
29.300	70.2218
29.317	70.2254
29.333	70.2284
29.350	70.2315
29.367	70.2337
29.383	70.2358
29.400	70.2379
29.417	70.2395
29.433	70.2410
29.450	70.2418
29.467	70.2429
29.483	70.2443
29.500	70.2473
29.517	70.2509
29.533	70.2540
29.550	70.2565
29.567	70.2578
29.583	70.2587
29.600	70.2591
29.617	70.2596
29.633	70.2605
29.650	70.2624
29.667	70.2644
29.683	70.2660
29.700	70.2678
29.717	70.2707
29.733	70.2734
29.750	70.2755
29.767	70.2777
29.783	70.2794
29.800	70.2800
29.817	70.2811
29.833	70.2826
29.850	70.2844
29.867	70.2865
29.883	70.2888
29.900	70.2913
29.917	70.2936
29.933	70.2959
29.950	70.2987
29.967	70.3014
29.983	70.3021
30.000	70.3021
30.017	70.3022
30.033	70.3009
30.050	70.2982
30.067	70.2960
30.083	70.2946
30.100	70.2937
30.117	70.2933
30.133	70.2930
30.150	70.2928
30.167	70.2926
30.183	70.2930
30.200	70.2938
30.217	70.2957
30.233	70.2945
30.250	70.2923
30.267	70.2908
30.283	70.2895
30.300	70.2879
30.317	70.2858
30.333	70.2832
30.350	70.2811
30.367	70.2798
30.383	70.2792
30.400	70.2784
30.417	70.2778
30.433	70.2772
30.450	70.2753
30.467	70.2733
30.483	70.2722
30.500	70.2724
30.517	70.2725
30.533	70.2703
30.550	70.2685
30.567	70.2683
30.583	70.2713
30.600	70.2788
30.617	70.2826
30.633	70.2821
30.650	70.2807
30.667	70.2799
30.683	70.2813
30.700	70.2834
30.717	70.2839
30.733	70.2834
30.750	70.2821
30.767	70.2805
30.783	70.2794
30.800	70.2787
30.817	70.2783
30.833	70.2784
30.850	70.2792
30.867	70.2807
30.883	70.2827
30.900	70.2851
30.917	70.2871
30.933	70.2889
30.950	70.2913
30.967	70.2948
30.983	70.2985
31.000	70.3019
31.017	70.3033
31.033	70.3035
31.050	70.3036
31.067	70.3039
31.083	70.3042
31.100	70.3046
31.117	70.3044
31.133	70.3036
31.150	70.3034
31.167	70.3028
31.183	70.3020
31.200	70.3004
31.217	70.2997
31.233	70.2988
31.250	70.2966
31.267	70.2941
31.283	70.2917
31.300	70.2895
31.317	70.2879
31.333	70.2865
31.350	70.2848
31.367	70.2836
31.383	70.2833
31.400	70.2840
31.417	70.2852
31.433	70.2883
31.450	70.2913
31.467	70.2927
31.483	70.2937
31.500	70.2952
31.517	70.2972
31.533	70.2991
31.550	70.3005
31.567	70.3013
31.583	70.3018
31.600	70.3020
31.617	70.3022
31.633	70.3024
31.650	70.3025
31.667	70.3035
31.683	70.3050
31.700	70.3066
31.717	70.3078
31.733	70.3090
31.750	70.3098
31.767	70.3100
31.783	70.3097
31.800	70.3090
31.817	70.3080
31.833	70.3067
31.850	70.3051
31.867	70.3029
31.883	70.3012
31.900	70.3003
31.917	70.3000
31.933	70.2999
31.950	70.2992
31.967	70.2984
31.983	70.2978
32.000	70.2982
32.017	70.2990
32.033	70.2990
32.050	70.2979
32.067	70.2959
32.083	70.2941
32.100	70.2925
32.117	70.2905
32.133	70.2892
32.150	70.2882
32.167	70.2876
32.183	70.2871
32.200	70.2864
32.217	70.2860
32.233	70.2858
32.250	70.2859
32.267	70.2861
32.283	70.2859
32.300	70.2848
32.317	70.2838
32.333	70.2836
32.350	70.2844
32.367	70.2851
32.383	70.2856
32.400	70.2857
32.417	70.2851
32.433	70.2825
32.450	70.2793
32.467	70.2768
32.483	70.2750
32.500	70.2740
32.517	70.2733
32.533	70.2723
32.550	70.2713
32.567	70.2705
32.583	70.2697
32.600	70.2690
32.617	70.2686
32.633	70.2684
32.650	70.2675
32.667	70.2658
32.683	70.2646
32.700	70.2641
32.717	70.2643
32.733	70.2645
32.750	70.2644
32.767	70.2642
32.783	70.2637
32.800	70.2633
32.817	70.2634
32.833	70.2641
32.850	70.2654
32.867	70.2665
32.883	70.2675
32.900	70.2689
32.917	70.2699
32.933	70.2698
32.950	70.2692
32.967	70.2686
32.983	70.2678
33.000	70.2675
33.017	70.2680
33.033	70.2691
33.050	70.2708
33.067	70.2731
33.083	70.2757
33.100	70.2785
33.117	70.2814
33.133	70.2844
33.150	70.2857
33.167	70.2848
33.183	70.2824
33.200	70.2794
33.217	70.2768
33.233	70.2754
33.250	70.2745
33.267	70.2736
33.283	70.2731
33.300	70.2725
33.317	70.2728
33.333	70.2747
33.350	70.2769
33.367	70.2790
33.383	70.2808
33.400	70.2815
33.417	70.2822
33.433	70.2835
33.450	70.2859
33.467	70.2878
33.483	70.2885
33.500	70.2876
33.517	70.2858
33.533	70.2834
33.550	70.2808
33.567	70.2775
33.583	70.2737
33.600	70.2703
33.617	70.2677
33.633	70.2652
33.650	70.2627
33.667	70.2601
33.683	70.2575
33.700	70.2550
33.717	70.2528
33.733	70.2515
33.750	70.2512
33.767	70.2518
33.783	70.2529
33.800	70.2544
33.817	70.2560
33.833	70.2580
33.850	70.2600
33.867	70.2618
33.883	70.2629
33.900	70.2637
33.917	70.2649
33.933	70.2665
33.950	70.2678
33.967	70.2695
33.983	70.2714
34.000	70.2727
34.017	70.2730
34.033	70.2719
34.050	70.2694
34.067	70.2667
34.083	70.2648
34.100	70.2642
34.117	70.2652
34.133	70.2668
34.150	70.2677
34.167	70.2674
34.183	70.2665
34.200	70.2651
34.217	70.2641
34.233	70.2634
34.250	70.2631
34.267	70.2626
34.283	70.2614
34.300	70.2600
34.317	70.2586
34.333	70.2573
34.350	70.2564
34.367	70.2554
34.383	70.2517
34.400	70.2467
34.417	70.2425
34.433	70.2390
34.450	70.2366
34.467	70.2353
34.483	70.2353
34.500	70.2363
34.517	70.2380
34.533	70.2395
34.550	70.2416
34.567	70.2439
34.583	70.2463
34.600	70.2482
34.617	70.2489
34.633	70.2497
34.650	70.2511
34.667	70.2510
34.683	70.2512
34.700	70.2518
34.717	70.2531
34.733	70.2555
34.750	70.2587
34.767	70.2625
34.783	70.2670
34.800	70.2718
34.817	70.2762
34.833	70.2800
34.850	70.2833
34.867	70.2862
34.883	70.2890
34.900	70.2916
34.917	70.2938
34.933	70.2962
34.950	70.2991
34.967	70.3018
34.983	70.3040
35.000	70.3059
35.017	70.3074
35.033	70.3089
35.050	70.3109
35.067	70.3130
35.083	70.3154
35.100	70.3178
35.117	70.3199
35.133	70.3222
35.150	70.3236
35.167	70.3243
35.183	70.3250
35.200	70.3250
35.217	70.3238
35.233	70.3224
35.250	70.3218
35.267	70.3217
35.283	70.3216
35.300	70.3216
35.317	70.3212
35.333	70.3204
35.350	70.3191
35.367	70.3176
35.383	70.3167
35.400	70.3174
35.417	70.3188
35.433	70.3201
35.450	70.3206
35.467	70.3195
35.483	70.3186
35.500	70.3178
35.517	70.3162
35.533	70.3150
35.550	70.3152
35.567	70.3160
35.583	70.3169
35.600	70.3186
35.617	70.3203
35.633	70.3215
35.650	70.3221
35.667	70.3225
35.683	70.3226
35.700	70.3218
35.717	70.3220
35.733	70.3234
35.750	70.3256
35.767	70.3280
35.783	70.3304
35.800	70.3328
35.817	70.3348
35.833	70.3366
35.850	70.3379
35.867	70.3384
35.883	70.3386
35.900	70.3387
35.917	70.3384
35.933	70.3361
35.950	70.3341
35.967	70.3347
35.983	70.3367
36.000	70.3389
36.017	70.3417
36.033	70.3434
36.050	70.3439
36.067	70.3438
36.083	70.3446
36.100	70.3466
36.117	70.3496
36.133	70.3527
36.150	70.3547
36.167	70.3554
36.183	70.3560
36.200	70.3573
36.217	70.3594
36.233	70.3614
36.250	70.3633
36.267	70.3654
36.283	70.3670
36.300	70.3673
36.317	70.3658
36.333	70.3638
36.350	70.3612
36.367	70.3581
36.383	70.3546
36.400	70.3514
36.417	70.3486
36.433	70.3455
36.450	70.3421
36.467	70.3386
36.483	70.3355
36.500	70.3333
36.517	70.3323
36.533	70.3321
36.550	70.3320
36.567	70.3324
36.583	70.3334
36.600	70.3342
36.617	70.3349
36.633	70.3370
36.650	70.3395
36.667	70.3421
36.683	70.3440
36.700	70.3451
36.717	70.3458
36.733	70.3457
36.750	70.3448
36.767	70.3436
36.783	70.3423
36.800	70.3409
36.817	70.3392
36.833	70.3377
36.850	70.3367
36.867	70.3363
36.883	70.3358
36.900	70.3353
36.917	70.3353
36.933	70.3359
36.950	70.3372
36.967	70.3400
36.983	70.3437
37.000	70.3469
37.017	70.3495
37.033	70.3511
37.050	70.3527
37.067	70.3540
37.083	70.3555
37.100	70.3568
37.117	70.3577
37.133	70.3571
37.150	70.3556
37.167	70.3536
37.183	70.3518
37.200	70.3505
37.217	70.3502
37.233	70.3506
37.250	70.3500
37.267	70.3483
37.283	70.3478
37.300	70.3479
37.317	70.3484
37.333	70.3492
37.350	70.3506
37.367	70.3518
37.383	70.3519
37.400	70.3509
37.417	70.3494
37.433	70.3473
37.450	70.3460
37.467	70.3459
37.483	70.3461
37.500	70.3467
37.517	70.3462
37.533	70.3457
37.550	70.3453
37.567	70.3453
37.583	70.3448
37.600	70.3434
37.617	70.3415
37.633	70.3392
37.650	70.3372
37.667	70.3362
37.683	70.3364
37.700	70.3363
37.717	70.3357
37.733	70.3355
37.750	70.3351
37.767	70.3351
37.783	70.3345
37.800	70.3333
37.817	70.3332
37.833	70.3343
37.850	70.3369
37.867	70.3397
37.883	70.3411
37.900	70.3400
37.917	70.3447
37.933	70.3494
37.950	70.3496
37.967	70.3439
37.983	70.3447
38.000	70.3464
38.017	70.3304
38.033	70.3072
38.050	70.2904
38.067	70.2793
38.083	70.2800
38.100	70.2869
38.117	70.2849
38.133	70.2852
38.150	70.2823
38.167	70.3003
38.183	70.3201
38.200	70.3137
38.217	70.3065
38.233	70.3175
38.250	70.3403
38.267	70.3469
38.283	70.3380
38.300	70.3289
38.317	70.3303
38.333	70.3243
38.350	70.3264
38.367	70.3277
38.383	70.3334
38.400	70.3367
38.417	70.3373
38.433	70.3372
38.450	70.3397
38.467	70.3366
38.483	70.3356
38.500	70.3269
38.517	70.3061
38.533	70.2915
38.550	70.2793
38.567	70.2678
38.583	70.2590
38.600	70.2533
38.617	70.2690
38.633	70.2892
38.650	70.2841
38.667	70.2827
38.683	70.2775
38.700	70.2680
38.717	70.2588
38.733	70.2587
38.750	70.2750
38.767	70.2791
38.783	70.2700
38.800	70.2608
38.817	70.2546
38.833	70.2527
38.850	70.2510
38.867	70.2503
38.883	70.2641
38.900	70.2890
38.917	70.2990
38.933	70.2909
38.950	70.2835
38.967	70.2808
38.983	70.2807
39.000	70.2842
39.017	70.2975
39.033	70.3149
39.050	70.3119
39.067	70.3176
39.083	70.3363
39.100	70.3535
39.117	70.3620
39.133	70.3595
39.150	70.3620
39.167	70.3701
39.183	70.3697
39.200	70.3512
39.217	70.3346
39.233	70.3322
39.250	70.3483
39.267	70.3653
39.283	70.3772
39.300	70.3838
39.317	70.3858
39.333	70.3858
39.350	70.3752
39.367	70.3692
39.383	70.3703
39.400	70.3666
39.417	70.3528
39.433	70.3401
39.450	70.3446
39.467	70.3548
39.483	70.3612
39.500	70.3669
39.517	70.3571
39.533	70.3438
39.550	70.3343
39.567	70.3386
39.583	70.3415
39.600	70.3366
39.617	70.3275
39.633	70.3193
39.650	70.3123
39.667	70.3140
39.683	70.3214
39.700	70.3184
39.717	70.3146
39.733	70.3189
39.750	70.3233
39.767	70.3188
39.783	70.3133
39.800	70.3042
39.817	70.2978
39.833	70.2949
39.850	70.2955
39.867	70.2997
39.883	70.3017
39.900	70.3011
39.917	70.2999
39.933	70.3083
39.950	70.3321
39.967	70.3489
39.983	70.3618
40.000	70.3766
40.017	70.3856
40.033	70.3903
40.050	70.3895
40.067	70.3861
40.083	70.3811
40.100	70.3772
40.117	70.3742
40.133	70.3686
40.150	70.3650
40.167	70.3581
40.183	70.3629
40.200	70.3900
40.217	70.4186
40.233	70.4403
40.250	70.4536
40.267	70.4608
40.283	70.4651
40.300	70.4665
40.317	70.4653
40.333	70.4624
40.350	70.4598
40.367	70.4602
40.383	70.4619
40.400	70.4640
40.417	70.4663
40.433	70.4689
40.450	70.4718
40.467	70.4738
40.483	70.4759
40.500	70.4779
40.517	70.4806
40.533	70.4838
40.550	70.4871
40.567	70.4891
40.583	70.4912
40.600	70.4933
40.617	70.5038
40.633	70.5405
40.650	70.5791
40.667	70.6081
40.683	70.6276
40.700	70.6395
40.717	70.6468
40.733	70.6407
40.750	70.5953
40.767	70.5378
40.783	70.4934
40.800	70.4647
40.817	70.4417
40.833	70.4263
40.850	70.4196
40.867	70.4131
40.883	70.4058
40.900	70.3962
40.917	70.3923
40.933	70.3929
40.950	70.3959
40.967	70.3977
40.983	70.3972
41.000	70.3978
41.017	70.4012
41.033	70.4031
41.050	70.4020
41.067	70.3989
41.083	70.3938
41.100	70.3883
41.117	70.3833
41.133	70.3794
41.150	70.3766
41.167	70.3748
41.183	70.3739
41.200	70.3734
41.217	70.3726
41.233	70.3718
41.250	70.3706
41.267	70.3694
41.283	70.3675
41.300	70.3651
41.317	70.3628
41.333	70.3613
41.350	70.3608
41.367	70.3607
41.383	70.3610
41.400	70.3613
41.417	70.3611
41.433	70.3607
41.450	70.3606
41.467	70.3611
41.483	70.3626
41.500	70.3650
41.517	70.3681
41.533	70.3714
41.550	70.3738
41.567	70.3754
41.583	70.3765
41.600	70.3775
41.617	70.3782
41.633	70.3787
41.650	70.3789
41.667	70.3785
41.683	70.3778
41.700	70.3765
41.717	70.3775
41.733	70.3787
41.750	70.3792
41.767	70.3816
41.783	70.3847
41.800	70.3870
41.817	70.3882
41.833	70.3873
41.850	70.3850
41.867	70.3830
41.883	70.3814
41.900	70.3806
41.917	70.3782
41.933	70.3753
41.950	70.3732
41.967	70.3718
41.983	70.3724
42.000	70.3751
42.017	70.3870
42.033	70.3910
42.050	70.4012
42.067	70.4072
42.083	70.4026
42.100	70.3965
42.117	70.3915
42.133	70.3880
42.150	70.3856
42.167	70.3839
42.183	70.3833
42.200	70.3835
42.217	70.3846
42.233	70.3867
42.250	70.3895
42.267	70.3921
42.283	70.3932
42.300	70.3932
42.317	70.3927
42.333	70.3921
42.350	70.3914
42.367	70.3911
42.383	70.3920
42.400	70.3936
42.417	70.3948
42.433	70.3950
42.450	70.3946
42.467	70.4013
42.483	70.4055
42.500	70.3355
42.517	70.2961
42.533	70.3193
42.550	70.3549
42.567	70.3801
42.583	70.3930
42.600	70.4088
42.617	70.4232
42.633	70.4310
42.650	70.4353
42.667	70.4342
42.683	70.4287
42.700	70.4287
42.717	70.4348
42.733	70.4403
42.750	70.4445
42.767	70.4426
42.783	70.4376
42.800	70.4340
42.817	70.4310
42.833	70.4236
42.850	70.4215
42.867	70.4191
42.883	70.4087
42.900	70.4117
42.917	70.4162
42.933	70.4108
42.950	70.3957
42.967	70.3813
42.983	70.3716
43.000	70.3723
43.017	70.3761
43.033	70.3787
43.050	70.3798
43.067	70.3801
43.083	70.3793
43.100	70.3781
43.117	70.3737
43.133	70.3687
43.150	70.3649
43.167	70.3636
43.183	70.3646
43.200	70.3652
43.217	70.3679
43.233	70.3708
43.250	70.3728
43.267	70.3737
43.283	70.3741
43.300	70.3746
43.317	70.3744
43.333	70.3737
43.350	70.3733
43.367	70.3727
43.383	70.3715
43.400	70.3706
43.417	70.3699
43.433	70.3692
43.450	70.3689
43.467	70.3687
43.483	70.3624
43.500	70.3518
43.517	70.3427
43.533	70.3367
43.550	70.3335
43.567	70.3335
43.583	70.3410
43.600	70.3496
43.617	70.3560
43.633	70.3604
43.650	70.3630
43.667	70.3643
43.683	70.3625
43.700	70.3598
43.717	70.3546
43.733	70.3526
43.750	70.3513
43.767	70.3482
43.783	70.3465
43.800	70.3471
43.817	70.3477
43.833	70.3457
43.850	70.3437
43.867	70.3401
43.883	70.3369
43.900	70.3347
43.917	70.3343
43.933	70.3355
43.950	70.3379
43.967	70.3411
43.983	70.3440
44.000	70.3460
44.017	70.3476
44.033	70.3493
44.050	70.3521
44.067	70.3551
44.083	70.3583
44.100	70.3605
44.117	70.3621
44.133	70.3641
44.150	70.3662
44.167	70.3682
44.183	70.3714
44.200	70.3750
44.217	70.3789
44.233	70.3828
44.250	70.3866
44.267	70.3930
44.283	70.4041
44.300	70.4105
44.317	70.4135
44.333	70.4140
44.350	70.4129
44.367	70.4112
44.383	70.4101
44.400	70.4113
44.417	70.4125
44.433	70.4117
44.450	70.4136
44.467	70.4149
44.483	70.4143
44.500	70.4126
44.517	70.4118
44.533	70.4138
44.550	70.4166
44.567	70.4178
44.583	70.4192
44.600	70.4208
44.617	70.4225
44.633	70.4241
44.650	70.4261
44.667	70.4277
44.683	70.4290
44.700	70.4302
44.717	70.4299
44.733	70.4291
44.750	70.4284
44.767	70.4285
44.783	70.4302
44.800	70.4334
44.817	70.4355
44.833	70.4370
44.850	70.4383
44.867	70.4392
44.883	70.4402
44.900	70.4425
44.917	70.4449
44.933	70.4430
44.950	70.4393
44.967	70.4370
44.983	70.4357
45.000	70.4317
45.017	70.4290
45.033	70.4287
45.050	70.4334
45.067	70.4388
45.083	70.4385
45.100	70.4398
45.117	70.4411
45.133	70.4430
45.150	70.4447
45.167	70.4410
45.183	70.4352
45.200	70.4301
45.217	70.4262
45.233	70.4226
45.250	70.4191
45.267	70.4160
45.283	70.4135
45.300	70.4118
45.317	70.4101
45.333	70.4081
45.350	70.4057
45.367	70.4038
45.383	70.4020
45.400	70.4008
45.417	70.3994
45.433	70.3979
45.450	70.3966
45.467	70.3955
45.483	70.3942
45.500	70.3927
45.517	70.3907
45.533	70.3886
45.550	70.3864
45.567	70.3842
45.583	70.3821
45.600	70.3799
45.617	70.3783
45.633	70.3774
45.650	70.3768
45.667	70.3765
45.683	70.3771
45.700	70.3778
45.717	70.3786
45.733	70.3796
45.750	70.3808
45.767	70.3825
45.783	70.3843
45.800	70.3854
45.817	70.3858
45.833	70.3866
45.850	70.3871
45.867	70.3873
45.883	70.3869
45.900	70.3858
45.917	70.3841
45.933	70.3820
45.950	70.3796
45.967	70.3777
45.983	70.3765
46.000	70.3760
46.017	70.3764
46.033	70.3775
46.050	70.3787
46.067	70.3797
46.083	70.3807
46.100	70.3811
46.117	70.3812
46.133	70.3810
46.150	70.3806
46.167	70.3801
46.183	70.3792
46.200	70.3780
46.217	70.3768
46.233	70.3759
46.250	70.3753
46.267	70.3749
46.283	70.3744
46.300	70.3734
46.317	70.3723
46.333	70.3738
46.350	70.3790
46.367	70.3847
46.383	70.3893
46.400	70.3931
46.417	70.3965
46.433	70.3990
46.450	70.4012
46.467	70.4025
46.483	70.4040
46.500	70.4047
46.517	70.4054
46.533	70.4061
46.550	70.4059
46.567	70.4049
46.583	70.4037
46.600	70.4022
46.617	70.4006
46.633	70.3991
46.650	70.3994
46.667	70.4004
46.683	70.4003
46.700	70.4005
46.717	70.4004
46.733	70.3994
46.750	70.3973
46.767	70.3940
46.783	70.3923
46.800	70.3913
46.817	70.3897
46.833	70.3878
46.850	70.3856
46.867	70.3862
46.883	70.3848
46.900	70.3829
46.917	70.3803
46.933	70.3778
46.950	70.3764
46.967	70.3774
46.983	70.3775
47.000	70.3752
47.017	70.3726
47.033	70.3706
47.050	70.3702
47.067	70.3712
47.083	70.3729
47.100	70.3750
47.117	70.3787
47.133	70.3815
47.150	70.3839
47.167	70.3878
47.183	70.3905
47.200	70.3913
47.217	70.3924
47.233	70.3921
47.250	70.3940
47.267	70.3964
47.283	70.3983
47.300	70.3988
47.317	70.3981
47.333	70.3986
47.350	70.4010
47.367	70.4024
47.383	70.4025
47.400	70.4013
47.417	70.4004
47.433	70.3997
47.450	70.3995
47.467	70.3996
47.483	70.4000
47.500	70.3979
47.517	70.3950
47.533	70.3941
47.550	70.3936
47.567	70.3909
47.583	70.3898
47.600	70.3880
47.617	70.3870
47.633	70.3847
47.650	70.3812
47.667	70.3786
47.683	70.3779
47.700	70.3787
47.717	70.3796
47.733	70.3810
47.750	70.3809
47.767	70.3816
47.783	70.3833
47.800	70.3839
47.817	70.3824
47.833	70.3811
47.850	70.3817
47.867	70.3803
47.883	70.3787
47.900	70.3779
47.917	70.3778
47.933	70.3785
47.950	70.3817
47.967	70.3836
47.983	70.3852
48.000	70.3852
48.017	70.3834
48.033	70.3821
48.050	70.3820
48.067	70.3832
48.083	70.3830
48.100	70.3828
48.117	70.3828
48.133	70.3832
48.150	70.3843
48.167	70.3857
48.183	70.3881
48.200	70.3907
48.217	70.3916
48.233	70.3920
48.250	70.3927
48.267	70.3935
48.283	70.3943
48.300	70.3949
48.317	70.3959
48.333	70.3968
48.350	70.3964
48.367	70.3967
48.383	70.3963
48.400	70.3954
48.417	70.3949
48.433	70.3929
48.450	70.3904
48.467	70.3875
48.483	70.3844
48.500	70.3817
48.517	70.3793
48.533	70.3776
48.550	70.3755
48.567	70.3740
48.583	70.3730
48.600	70.3742
48.617	70.3751
48.633	70.3767
48.650	70.3792
48.667	70.3819
48.683	70.3847
48.700	70.3879
48.717	70.3912
48.733	70.3944
48.750	70.3975
48.767	70.4012
48.783	70.4051
48.800	70.4099
48.817	70.4141
48.833	70.4171
48.850	70.4194
48.867	70.4213
48.883	70.4231
48.900	70.4252
48.917	70.4274
48.933	70.4302
48.950	70.4325
48.967	70.4344
48.983	70.4366
49.000	70.4384
49.017	70.4394
49.033	70.4390
49.050	70.4375
49.067	70.4357
49.083	70.4334
49.100	70.4315
49.117	70.4300
49.133	70.4285
49.150	70.4270
49.167	70.4252
49.183	70.4233
49.200	70.4219
49.217	70.4203
49.233	70.4188
49.250	70.4174
49.267	70.4163
49.283	70.4159
49.300	70.4162
49.317	70.4169
49.333	70.4174
49.350	70.4176
49.367	70.4174
49.383	70.4170
49.400	70.4160
49.417	70.4139
49.433	70.4113
49.450	70.4086
49.467	70.4066
49.483	70.4053
49.500	70.4044
49.517	70.4040
49.533	70.4039
49.550	70.4043
49.567	70.4052
49.583	70.4063
49.600	70.4068
49.617	70.4065
49.633	70.4056
49.650	70.4042
49.667	70.4026
49.683	70.4012
49.700	70.4000
49.717	70.3983
49.733	70.3967
49.750	70.3955
49.767	70.3943
49.783	70.3929
49.800	70.3913
49.817	70.3894
49.833	70.3873
49.850	70.3853
49.867	70.3831
49.883	70.3809
49.900	70.3789
49.917	70.3773
49.933	70.3755
49.950	70.3741
49.967	70.3728
49.983	70.3715
50.000	70.3699
50.017	70.3682
50.033	70.3670
50.050	70.3673
50.067	70.3687
50.083	70.3709
50.100	70.3737
50.117	70.3760
50.133	70.3776
50.150	70.3783
50.167	70.3785
50.183	70.3788
50.200	70.3789
50.217	70.3789
50.233	70.3792
50.250	70.3801
50.267	70.3816
50.283	70.3834
50.300	70.3855
50.317	70.3877
50.333	70.3900
50.350	70.3932
50.367	70.3959
50.383	70.3981
50.400	70.4000
50.417	70.4015
50.433	70.4020
50.450	70.4018
50.467	70.4007
50.483	70.3992
50.500	70.3977
50.517	70.3974
50.533	70.3982
50.550	70.3991
50.567	70.3996
50.583	70.3994
50.600	70.3993
50.617	70.3995
50.633	70.4001
50.650	70.4006
50.667	70.4006
50.683	70.3999
50.700	70.3985
50.717	70.3973
50.733	70.3963
50.750	70.3953
50.767	70.3945
50.783	70.3938
50.800	70.3934
50.817	70.3931
50.833	70.3930
50.850	70.3935
50.867	70.3942
50.883	70.3952
50.900	70.3968
50.917	70.3985
50.933	70.4000
50.950	70.4013
50.967	70.4033
50.983	70.4049
51.000	70.4059
51.017	70.4065
51.033	70.4071
51.050	70.4076
51.067	70.4087
51.083	70.4107
51.100	70.4127
51.117	70.4150
51.133	70.4171
51.150	70.4190
51.167	70.4211
51.183	70.4232
51.200	70.4251
51.217	70.4266
51.233	70.4280
51.250	70.4290
51.267	70.4290
51.283	70.4285
51.300	70.4277
51.317	70.4270
51.333	70.4265
51.350	70.4266
51.367	70.4267
51.383	70.4269
51.400	70.4283
51.417	70.4322
51.433	70.4347
51.450	70.4359
51.467	70.4368
51.483	70.4387
51.500	70.4413
51.517	70.4457
51.533	70.4515
51.550	70.4548
51.567	70.4595
51.583	70.4660
51.600	70.4702
51.617	70.4735
51.633	70.4828
51.650	70.5016
51.667	70.5096
51.683	70.5190
51.700	70.5289
51.717	70.5284
51.733	70.5245
51.750	70.5206
51.767	70.5186
51.783	70.5142
51.800	70.5122
51.817	70.5086
51.833	70.5104
51.850	70.5126
51.867	70.5168
51.883	70.5129
51.900	70.5089
51.917	70.5117
51.933	70.5080
51.950	70.4774
51.967	70.4241
51.983	70.3771
52.000	70.3437
52.017	70.3214
52.033	70.3066
52.050	70.2984
52.067	70.2951
52.083	70.2934
52.100	70.2942
52.117	70.2955
52.133	70.2981
52.150	70.3004
52.167	70.3017
52.183	70.3017
52.200	70.3021
52.217	70.3020
52.233	70.3003
52.250	70.2976
52.267	70.2945
52.283	70.2915
52.300	70.2915
52.317	70.2914
52.333	70.2921
52.350	70.2946
52.367	70.3216
52.383	70.3782
52.400	70.4287
52.417	70.4519
52.433	70.4616
52.450	70.4759
52.467	70.4897
52.483	70.5045
52.500	70.5166
52.517	70.5215
52.533	70.5250
52.550	70.5246
52.567	70.5205
52.583	70.5210
52.600	70.5222
52.617	70.5225
52.633	70.5224
52.650	70.5254
52.667	70.5285
52.683	70.5298
52.700	70.5287
52.717	70.5301
52.733	70.5307
52.750	70.5221
52.767	70.5102
52.783	70.4996
52.800	70.4931
52.817	70.4883
52.833	70.4848
52.850	70.4830
52.867	70.4827
52.883	70.4827
52.900	70.4826
52.917	70.4824
52.933	70.4820
52.950	70.4813
52.967	70.4806
52.983	70.4799
53.000	70.4798
53.017	70.4799
53.033	70.4798
53.050	70.4794
53.067	70.4793
53.083	70.4794
53.100	70.4796
53.117	70.4799
53.133	70.4810
53.150	70.4829
53.167	70.4850
53.183	70.4871
53.200	70.4883
53.217	70.4889
53.233	70.4891
53.250	70.4890
53.267	70.4888
53.283	70.4883
53.300	70.4877
53.317	70.4870
53.333	70.4861
53.350	70.4854
53.367	70.4854
53.383	70.4853
53.400	70.4853
53.417	70.4855
53.433	70.4854
53.450	70.4849
53.467	70.4841
53.483	70.4826
53.500	70.4807
53.517	70.4788
53.533	70.4773
53.550	70.4761
53.567	70.4759
53.583	70.4762
53.600	70.4764
53.617	70.4760
53.633	70.4751
53.650	70.4733
53.667	70.4711
53.683	70.4696
53.700	70.4686
53.717	70.4674
53.733	70.4660
53.750	70.4645
53.767	70.4626
53.783	70.4602
53.800	70.4576
53.817	70.4545
53.833	70.4513
53.850	70.4489
53.867	70.4475
53.883	70.4462
53.900	70.4448
53.917	70.4435
53.933	70.4423
53.950	70.4403
53.967	70.4384
53.983	70.4363
54.000	70.4344
54.017	70.4327
54.033	70.4313
54.050	70.4299
54.067	70.4287
54.083	70.4276
54.100	70.4273
54.117	70.4277
54.133	70.4293
54.150	70.4307
54.167	70.4316
54.183	70.4328
54.200	70.4343
54.217	70.4362
54.233	70.4381
54.250	70.4391
54.267	70.4390
54.283	70.4384
54.300	70.4374
54.317	70.4364
54.333	70.4358
54.350	70.4360
54.367	70.4365
54.383	70.4380
54.400	70.4403
54.417	70.4428
54.433	70.4455
54.450	70.4484
54.467	70.4512
54.483	70.4537
54.500	70.4561
54.517	70.4586
54.533	70.4610
54.550	70.4627
54.567	70.4641
54.583	70.4655
54.600	70.4673
54.617	70.4692
54.633	70.4706
54.650	70.4717
54.667	70.4734
54.683	70.4772
54.700	70.4800
54.717	70.4820
54.733	70.4835
54.750	70.4845
54.767	70.4859
54.783	70.4891
54.800	70.4921
54.817	70.4944
54.833	70.4964
54.850	70.4984
54.867	70.5007
54.883	70.5033
54.900	70.5058
54.917	70.5080
54.933	70.5096
54.950	70.5109
54.967	70.5130
54.983	70.5140
55.000	70.5136
55.017	70.5131
55.033	70.5127
55.050	70.5131
55.067	70.5151
55.083	70.5162
55.100	70.5125
55.117	70.5070
55.133	70.5020
55.150	70.4985
55.167	70.4964
55.183	70.4949
55.200	70.4929
55.217	70.4907
55.233	70.4886
55.250	70.4865
55.267	70.4843
55.283	70.4820
55.300	70.4796
55.317	70.4778
55.333	70.4761
55.350	70.4742
55.367	70.4722
55.383	70.4705
55.400	70.4694
55.417	70.4685
55.433	70.4682
55.450	70.4675
55.467	70.4661
55.483	70.4643
55.500	70.4627
55.517	70.4613
55.533	70.4607
55.550	70.4607
55.567	70.4607
55.583	70.4611
55.600	70.4612
55.617	70.4607
55.633	70.4593
55.650	70.4581
55.667	70.4577
55.683	70.4580
55.700	70.4586
55.717	70.4591
55.733	70.4597
55.750	70.4600
55.767	70.4594
55.783	70.4585
55.800	70.4579
55.817	70.4575
55.833	70.4568
55.850	70.4560
55.867	70.4554
55.883	70.4546
55.900	70.4540
55.917	70.4538
55.933	70.4532
55.950	70.4523
55.967	70.4518
55.983	70.4518
56.000	70.4516
56.017	70.4511
56.033	70.4509
56.050	70.4516
56.067	70.4528
56.083	70.4541
56.100	70.4551
56.117	70.4565
56.133	70.4584
56.150	70.4603
56.167	70.4615
56.183	70.4626
56.200	70.4637
56.217	70.4655
56.233	70.4676
56.250	70.4698
56.267	70.4722
56.283	70.4745
56.300	70.4763
56.317	70.4777
56.333	70.4786
56.350	70.4792
56.367	70.4791
56.383	70.4785
56.400	70.4781
56.417	70.4781
56.433	70.4787
56.450	70.4802
56.467	70.4818
56.483	70.4828
56.500	70.4833
56.517	70.4841
56.533	70.4848
56.550	70.4850
56.567	70.4850
56.583	70.4848
56.600	70.4840
56.617	70.4827
56.633	70.4813
56.650	70.4806
56.667	70.4806
56.683	70.4815
56.700	70.4828
56.717	70.4841
56.733	70.4850
56.750	70.4854
56.767	70.4861
56.783	70.4874
56.800	70.4890
56.817	70.4906
56.833	70.4918
56.850	70.4927
56.867	70.4936
56.883	70.4941
56.900	70.4938
56.917	70.4933
56.933	70.4927
56.950	70.4920
56.967	70.4907
56.983	70.4891
57.000	70.4876
57.017	70.4863
57.033	70.4855
57.050	70.4851
57.067	70.4846
57.083	70.4844
57.100	70.4842
57.117	70.4841
57.133	70.4843
57.150	70.4844
57.167	70.4845
57.183	70.4846
57.200	70.4854
57.217	70.4860
57.233	70.4863
57.250	70.4866
57.267	70.4866
57.283	70.4864
57.300	70.4858
57.317	70.4851
57.333	70.4841
57.350	70.4826
57.367	70.4806
57.383	70.4779
57.400	70.4749
57.417	70.4722
57.433	70.4701
57.450	70.4683
57.467	70.4671
57.483	70.4673
57.500	70.4683
57.517	70.4698
57.533	70.4715
57.550	70.4729
57.567	70.4736
57.583	70.4734
57.600	70.4732
57.617	70.4727
57.633	70.4719
57.650	70.4713
57.667	70.4716
57.683	70.4726
57.700	70.4738
57.717	70.4752
57.733	70.4762
57.750	70.4770
57.767	70.4777
57.783	70.4780
57.800	70.4779
57.817	70.4769
57.833	70.4754
57.850	70.4741
57.867	70.4733
57.883	70.4733
57.900	70.4740
57.917	70.4753
57.933	70.4771
57.950	70.4796
57.967	70.4831
57.983	70.4868
58.000	70.4899
58.017	70.4919
58.033	70.4935
58.050	70.4954
58.067	70.4979
58.083	70.5002
58.100	70.5020
58.117	70.5034
58.133	70.5045
58.150	70.5056
58.167	70.5063
58.183	70.5069
58.200	70.5075
58.217	70.5086
58.233	70.5104
58.250	70.5124
58.267	70.5146
58.283	70.5170
58.300	70.5189
58.317	70.5202
58.333	70.5214
58.350	70.5229
58.367	70.5244
58.383	70.5253
58.400	70.5254
58.417	70.5248
58.433	70.5236
58.450	70.5221
58.467	70.5204
58.483	70.5192
58.500	70.5189
58.517	70.5191
58.533	70.5197
58.550	70.5210
58.567	70.5227
58.583	70.5245
58.600	70.5261
58.617	70.5279
58.633	70.5291
58.650	70.5293
58.667	70.5288
58.683	70.5274
58.700	70.5258
58.717	70.5245
58.733	70.5241
58.750	70.5239
58.767	70.5239
58.783	70.5239
58.800	70.5242
58.817	70.5253
58.833	70.5266
58.850	70.5281
58.867	70.5295
58.883	70.5309
58.900	70.5314
58.917	70.5308
58.933	70.5302
58.950	70.5296
58.967	70.5291
58.983	70.5309
59.000	70.5342
59.017	70.5336
59.033	70.5318
59.050	70.5301
59.067	70.5294
59.083	70.5297
59.100	70.5309
59.117	70.5326
59.133	70.5340
59.150	70.5346
59.167	70.5342
59.183	70.5334
59.200	70.5327
59.217	70.5322
59.233	70.5315
59.250	70.5312
59.267	70.5312
59.283	70.5319
59.300	70.5330
59.317	70.5344
59.333	70.5361
59.350	70.5374
59.367	70.5381
59.383	70.5382
59.400	70.5382
59.417	70.5382
59.433	70.5387
59.450	70.5395
59.467	70.5397
59.483	70.5396
59.500	70.5395
59.517	70.5393
59.533	70.5383
59.550	70.5362
59.567	70.5334
59.583	70.5303
59.600	70.5271
59.617	70.5246
59.633	70.5227
59.650	70.5218
59.667	70.5212
59.683	70.5203
59.700	70.5189
59.717	70.5176
59.733	70.5168
59.750	70.5164
59.767	70.5162
59.783	70.5160
59.800	70.5155
59.817	70.5143
59.833	70.5133
59.850	70.5128
59.867	70.5130
59.883	70.5139
59.900	70.5152
59.917	70.5163
59.933	70.5174
59.950	70.5186
59.967	70.5200
59.983	70.5213
60.000	70.5226
60.017	70.5236
60.033	70.5245
60.050	70.5260
60.067	70.5278
60.083	70.5297
60.100	70.5320
60.117	70.5340
60.133	70.5357
60.150	70.5367
60.167	70.5378
60.183	70.5387
60.200	70.5395
60.217	70.5406
60.233	70.5423
60.250	70.5441
60.267	70.5459
60.283	70.5470
60.300	70.5479
60.317	70.5491
60.333	70.5505
60.350	70.5517
60.367	70.5526
60.383	70.5537
60.400	70.5553
60.417	70.5567
60.433	70.5580
60.450	70.5591
60.467	70.5603
60.483	70.5616
60.500	70.5633
60.517	70.5652
60.533	70.5669
60.550	70.5688
60.567	70.5706
60.583	70.5722
60.600	70.5738
60.617	70.5757
60.633	70.5771
60.650	70.5783
60.667	70.5791
60.683	70.5800
60.700	70.5803
60.717	70.5810
60.733	70.5825
60.750	70.5836
60.767	70.5840
60.783	70.5836
60.800	70.5821
60.817	70.5796
60.833	70.5769
60.850	70.5747
60.867	70.5734
60.883	70.5728
60.900	70.5723
60.917	70.5717
60.933	70.5716
60.950	70.5720
60.967	70.5727
60.983	70.5735
61.000	70.5738
61.017	70.5739
61.033	70.5742
61.050	70.5747
61.067	70.5754
61.083	70.5760
61.100	70.5764
61.117	70.5770
61.133	70.5770
61.150	70.5764
61.167	70.5756
61.183	70.5747
61.200	70.5737
61.217	70.5726
61.233	70.5717
61.250	70.5706
61.267	70.5693
61.283	70.5685
61.300	70.5723
61.317	70.5699
61.333	70.5739
61.350	70.5696
61.367	70.5640
61.383	70.5664
61.400	70.5726
61.417	70.5760
61.433	70.5776
61.450	70.5827
61.467	70.5829
61.483	70.5889
61.500	70.5932
61.517	70.6011
61.533	70.5944
61.550	70.5852
61.567	70.5771
61.583	70.5906
61.600	70.5940
61.617	70.5877
61.633	70.5790
61.650	70.5691
61.667	70.5668
61.683	70.5742
61.700	70.5914
61.717	70.6128
61.733	70.6353
61.750	70.6392
61.767	70.6286
61.783	70.6226
61.800	70.6164
61.817	70.6095
61.833	70.5966
61.850	70.5826
61.867	70.5707
61.883	70.5639
61.900	70.5596
61.917	70.5585
61.933	70.5570
61.950	70.5786
61.967	70.6046
61.983	70.6235
62.000	70.6282
62.017	70.6233
62.033	70.6151
62.050	70.6045
62.067	70.5974
62.083	70.5917
62.100	70.5826
62.117	70.5736
62.133	70.5678
62.150	70.5648
62.167	70.5638
62.183	70.5637
62.200	70.5640
62.217	70.5648
62.233	70.5658
62.250	70.5668
62.267	70.5678
62.283	70.5689
62.300	70.5699
62.317	70.5707
62.333	70.5722
62.350	70.5746
62.367	70.5767
62.383	70.5784
62.400	70.5800
62.417	70.5815
62.433	70.5830
62.450	70.5848
62.467	70.5865
62.483	70.5887
62.500	70.5908
62.517	70.5932
62.533	70.5973
62.550	70.6010
62.567	70.5879
62.583	70.5877
62.600	70.5926
62.617	70.5978
62.633	70.6015
62.650	70.6046
62.667	70.6002
62.683	70.5958
62.700	70.5961
62.717	70.6002
62.733	70.5886
62.750	70.5610
62.767	70.5384
62.783	70.5405
62.800	70.5551
62.817	70.5666
62.833	70.5814
62.850	70.5948
62.867	70.6018
62.883	70.6004
62.900	70.6034
62.917	70.6105
62.933	70.6164
62.950	70.6197
62.967	70.6233
62.983	70.6326
63.000	70.6416
63.017	70.6409
63.033	70.6480
63.050	70.6466
63.067	70.6513
63.083	70.6279
63.100	70.5975
63.117	70.5711
63.133	70.5530
63.150	70.5479
63.167	70.5665
63.183	70.5890
63.200	70.6058
63.217	70.6155
63.233	70.6220
63.250	70.6288
63.267	70.6331
63.283	70.6521
63.300	70.6871
63.317	70.7160
63.333	70.7399
63.350	70.7183
63.367	70.6624
63.383	70.6283
63.400	70.6347
63.417	70.6586
63.433	70.6774
63.450	70.6889
63.467	70.6952
63.483	70.6982
63.500	70.6999
63.517	70.7007
63.533	70.6966
63.550	70.6822
63.567	70.6555
63.583	70.6303
63.600	70.6119
63.617	70.6000
63.633	70.5925
63.650	70.5870
63.667	70.5881
63.683	70.5622
63.700	70.5303
63.717	70.5066
63.733	70.4907
63.750	70.4804
63.767	70.4749
63.783	70.4734
63.800	70.4732
63.817	70.4785
63.833	70.5063
63.850	70.5344
63.867	70.5554
63.883	70.5717
63.900	70.5813
63.917	70.5849
63.933	70.5926
63.950	70.6030
63.967	70.6005
63.983	70.5853
64.000	70.5621
64.017	70.5453
64.033	70.5454
64.050	70.5377
64.067	70.5369
64.083	70.5428
64.100	70.5502
64.117	70.5514
64.133	70.5543
64.150	70.5618
64.167	70.5656
64.183	70.5728
64.200	70.5832
64.217	70.5956
64.233	70.6094
64.250	70.6215
64.267	70.6130
64.283	70.6023
64.300	70.5912
64.317	70.5764
64.333	70.5741
64.350	70.5723
64.367	70.5676
64.383	70.5527
64.400	70.5483
64.417	70.5621
64.433	70.5763
64.450	70.5853
64.467	70.5942
64.483	70.5968
64.500	70.5900
64.517	70.5778
64.533	70.5815
64.550	70.5855
64.567	70.5866
64.583	70.5849
64.600	70.5825
64.617	70.5791
64.633	70.5713
64.650	70.5707
64.667	70.5769
64.683	70.5898
64.700	70.5965
64.717	70.5943
64.733	70.5876
64.750	70.5845
64.767	70.5844
64.783	70.5877
64.800	70.5948
64.817	70.6029
64.833	70.6036
64.850	70.6076
64.867	70.6072
64.883	70.6019
64.900	70.5981
64.917	70.5996
64.933	70.6068
64.950	70.6145
64.967	70.6215
64.983	70.6280
65.000	70.6381
65.017	70.6457
65.033	70.6469
65.050	70.6456
65.067	70.6438
65.083	70.6446
65.100	70.6464
65.117	70.6465
65.133	70.6448
65.150	70.6448
65.167	70.6452
65.183	70.6465
65.200	70.6444
65.217	70.6430
65.233	70.6472
65.250	70.6517
65.267	70.6515
65.283	70.6427
65.300	70.6369
65.317	70.6410
65.333	70.6466
65.350	70.6502
65.367	70.6526
65.383	70.6543
65.400	70.6531
65.417	70.6430
65.433	70.6316
65.450	70.6307
65.467	70.6294
65.483	70.6265
65.500	70.6209
65.517	70.6176
65.533	70.6251
65.550	70.6346
65.567	70.6391
65.583	70.6451
65.600	70.6518
65.617	70.6572
65.633	70.6616
65.650	70.6631
65.667	70.6566
65.683	70.6455
65.700	70.6381
65.717	70.6320
65.733	70.6300
65.750	70.6304
65.767	70.6295
65.783	70.6315
65.800	70.6329
65.817	70.6297
65.833	70.6284
65.850	70.6177
65.867	70.6056
65.883	70.5969
65.900	70.5920
65.917	70.5899
65.933	70.5892
65.950	70.5913
65.967	70.5952
65.983	70.5962
66.000	70.5963
66.017	70.5932
66.033	70.5891
66.050	70.5906
66.067	70.5943
66.083	70.5973
66.100	70.5989
66.117	70.6006
66.133	70.6021
66.150	70.6036
66.167	70.6051
66.183	70.6047
66.200	70.6037
66.217	70.6024
66.233	70.6064
66.250	70.6058
66.267	70.6043
66.283	70.6070
66.300	70.6126
66.317	70.6166
66.333	70.6171
66.350	70.6148
66.367	70.6120
66.383	70.6199
66.400	70.6245
66.417	70.6275
66.433	70.6330
66.450	70.6318
66.467	70.6269
66.483	70.6231
66.500	70.6226
66.517	70.6307
66.533	70.6383
66.550	70.6438
66.567	70.6411
66.583	70.6349
66.600	70.6305
66.617	70.6352
66.633	70.6398
66.650	70.6423
66.667	70.6399
66.683	70.6370
66.700	70.6329
66.717	70.6265
66.733	70.6234
66.750	70.6315
66.767	70.6367
66.783	70.6350
66.800	70.6338
66.817	70.6326
66.833	70.6273
66.850	70.6180
66.867	70.6154
66.883	70.6258
66.900	70.6324
66.917	70.6358
66.933	70.6398
66.950	70.6445
66.967	70.6520
66.983	70.6550
67.000	70.6520
67.017	70.6460
67.033	70.6345
67.050	70.6298
67.067	70.6332
67.083	70.6375
67.100	70.6393
67.117	70.6405
67.133	70.6405
67.150	70.6381
67.167	70.6376
67.183	70.6302
67.200	70.6297
67.217	70.6253
67.233	70.6225
67.250	70.6158
67.267	70.6073
67.283	70.6072
67.300	70.6126
67.317	70.6159
67.333	70.6140
67.350	70.6057
67.367	70.6020
67.383	70.6010
67.400	70.6012
67.417	70.6009
67.433	70.5979
67.450	70.5931
67.467	70.5882
67.483	70.5874
67.500	70.5875
67.517	70.5877
67.533	70.5902
67.550	70.5932
67.567	70.5944
67.583	70.5932
67.600	70.5897
67.617	70.5861
67.633	70.5829
67.650	70.5800
67.667	70.5769
67.683	70.5736
67.700	70.5704
67.717	70.5682
67.733	70.5663
67.750	70.5653
67.767	70.5652
67.783	70.5654
67.800	70.5657
67.817	70.5651
67.833	70.5637
67.850	70.5622
67.867	70.5607
67.883	70.5598
67.900	70.5596
67.917	70.5594
67.933	70.5590
67.950	70.5580
67.967	70.5565
67.983	70.5547
68.000	70.5529
68.017	70.5511
68.033	70.5492
68.050	70.5472
68.067	70.5453
68.083	70.5434
68.100	70.5420
68.117	70.5407
68.133	70.5390
68.150	70.5371
68.167	70.5353
68.183	70.5339
68.200	70.5333
68.217	70.5332
68.233	70.5334
68.250	70.5328
68.267	70.5321
68.283	70.5317
68.300	70.5315
68.317	70.5313
68.333	70.5311
68.350	70.5308
68.367	70.5306
68.383	70.5307
68.400	70.5307
68.417	70.5302
68.433	70.5294
68.450	70.5288
68.467	70.5280
68.483	70.5267
68.500	70.5253
68.517	70.5241
68.533	70.5231
68.550	70.5223
68.567	70.5213
68.583	70.5204
68.600	70.5196
68.617	70.5194
68.633	70.5191
68.650	70.5185
68.667	70.5180
68.683	70.5175
68.700	70.5169
68.717	70.5157
68.733	70.5140
68.750	70.5119
68.767	70.5099
68.783	70.5080
68.800	70.5070
68.817	70.5063
68.833	70.5056
68.850	70.5043
68.867	70.5021
68.883	70.5005
68.900	70.5000
68.917	70.5002
68.933	70.5008
68.950	70.5020
68.967	70.5033
68.983	70.5050
69.000	70.5066
69.017	70.5074
69.033	70.5072
69.050	70.5068
69.067	70.5069
69.083	70.5076
69.100	70.5088
69.117	70.5107
69.133	70.5127
69.150	70.5142
69.167	70.5157
69.183	70.5173
69.200	70.5191
69.217	70.5209
69.233	70.5228
69.250	70.5247
69.267	70.5266
69.283	70.5286
69.300	70.5304
69.317	70.5323
69.333	70.5344
69.350	70.5358
69.367	70.5367
69.383	70.5376
69.400	70.5383
69.417	70.5394
69.433	70.5412
69.450	70.5430
69.467	70.5445
69.483	70.5459
69.500	70.5466
69.517	70.5469
69.533	70.5470
69.550	70.5478
69.567	70.5493
69.583	70.5509
69.600	70.5516
69.617	70.5519
69.633	70.5517
69.650	70.5516
69.667	70.5513
69.683	70.5512
69.700	70.5512
69.717	70.5513
69.733	70.5512
69.750	70.5500
69.767	70.5486
69.783	70.5480
69.800	70.5472
69.817	70.5465
69.833	70.5459
69.850	70.5452
69.867	70.5443
69.883	70.5433
69.900	70.5417
69.917	70.5407
69.933	70.5399
69.950	70.5388
69.967	70.5372
69.983	70.5355
70.000	70.5339
70.017	70.5324
70.033	70.5313
70.050	70.5314
70.067	70.5325
70.083	70.5338
70.100	70.5350
70.117	70.5360
70.133	70.5370
70.150	70.5374
70.167	70.5372
70.183	70.5362
70.200	70.5352
70.217	70.5347
70.233	70.5340
70.250	70.5329
70.267	70.5320
70.283	70.5314
70.300	70.5311
70.317	70.5307
70.333	70.5301
70.350	70.5303
70.367	70.5309
70.383	70.5317
70.400	70.5323
70.417	70.5327
70.433	70.5334
70.450	70.5343
70.467	70.5356
70.483	70.5376
70.500	70.5398
70.517	70.5423
70.533	70.5447
70.550	70.5471
70.567	70.5490
70.583	70.5502
70.600	70.5514
70.617	70.5525
70.633	70.5529
70.650	70.5531
70.667	70.5538
70.683	70.5554
70.700	70.5568
70.717	70.5580
70.733	70.5587
70.750	70.5590
70.767	70.5585
70.783	70.5579
70.800	70.5577
70.817	70.5579
70.833	70.5584
70.850	70.5590
70.867	70.5599
70.883	70.5603
70.900	70.5606
70.917	70.5608
70.933	70.5611
70.950	70.5613
70.967	70.5609
70.983	70.5600
71.000	70.5586
71.017	70.5570
71.033	70.5552
71.050	70.5537
71.067	70.5527
71.083	70.5512
71.100	70.5493
71.117	70.5469
71.133	70.5449
71.150	70.5433
71.167	70.5423
71.183	70.5417
71.200	70.5424
71.217	70.5439
71.233	70.5456
71.250	70.5473
71.267	70.5489
71.283	70.5501
71.300	70.5502
71.317	70.5497
71.333	70.5493
71.350	70.5493
71.367	70.5495
71.383	70.5507
71.400	70.5518
71.417	70.5532
71.433	70.5548
71.450	70.5568
71.467	70.5595
71.483	70.5619
71.500	70.5635
71.517	70.5640
71.533	70.5634
71.550	70.5626
71.567	70.5614
71.583	70.5602
71.600	70.5594
71.617	70.5594
71.633	70.5599
71.650	70.5602
71.667	70.5596
71.683	70.5591
71.700	70.5583
71.717	70.5572
71.733	70.5561
71.750	70.5549
71.767	70.5537
71.783	70.5526
71.800	70.5515
71.817	70.5508
71.833	70.5498
71.850	70.5485
71.867	70.5467
71.883	70.5444
71.900	70.5422
71.917	70.5404
71.933	70.5388
71.950	70.5374
71.967	70.5367
71.983	70.5368
72.000	70.5370
72.017	70.5375
72.033	70.5378
72.050	70.5382
72.067	70.5384
72.083	70.5382
72.100	70.5381
72.117	70.5379
72.133	70.5372
72.150	70.5361
72.167	70.5349
72.183	70.5342
72.200	70.5338
72.217	70.5335
72.233	70.5332
72.250	70.5341
72.267	70.5356
72.283	70.5380
72.300	70.5413
72.317	70.5445
72.333	70.5470
72.350	70.5500
72.367	70.5525
72.383	70.5538
72.400	70.5547
72.417	70.5558
72.433	70.5571
72.450	70.5586
72.467	70.5603
72.483	70.5626
72.500	70.5649
72.517	70.5666
72.533	70.5679
72.550	70.5692
72.567	70.5697
72.583	70.5699
72.600	70.5704
72.617	70.5711
72.633	70.5724
72.650	70.5741
72.667	70.5760
72.683	70.5774
72.700	70.5779
72.717	70.5781
72.733	70.5784
72.750	70.5781
72.767	70.5774
72.783	70.5776
72.800	70.5786
72.817	70.5796
72.833	70.5809
72.850	70.5819
72.867	70.5821
72.883	70.5816
72.900	70.5816
72.917	70.5821
72.933	70.5828
72.950	70.5835
72.967	70.5842
72.983	70.5847
73.000	70.5863
73.017	70.5883
73.033	70.5895
73.050	70.5892
73.067	70.5876
73.083	70.5857
73.100	70.5846
73.117	70.5838
73.133	70.5834
73.150	70.5835
73.167	70.5837
73.183	70.5839
73.200	70.5834
73.217	70.5827
73.233	70.5820
73.250	70.5812
73.267	70.5798
73.283	70.5778
73.300	70.5754
73.317	70.5726
73.333	70.5698
73.350	70.5671
73.367	70.5645
73.383	70.5624
73.400	70.5608
73.417	70.5589
73.433	70.5568
73.450	70.5548
73.467	70.5530
73.483	70.5517
73.500	70.5509
73.517	70.5509
73.533	70.5513
73.550	70.5513
73.567	70.5511
73.583	70.5505
73.600	70.5493
73.617	70.5474
73.633	70.5450
73.650	70.5420
73.667	70.5389
73.683	70.5366
73.700	70.5358
73.717	70.5360
73.733	70.5369
73.750	70.5379
73.767	70.5389
73.783	70.5398
73.800	70.5413
73.817	70.5431
73.833	70.5448
73.850	70.5463
73.867	70.5476
73.883	70.5487
73.900	70.5499
73.917	70.5510
73.933	70.5510
73.950	70.5500
73.967	70.5487
73.983	70.5477
74.000	70.5473
74.017	70.5472
74.033	70.5471
74.050	70.5469
74.067	70.5468
74.083	70.5463
74.100	70.5457
74.117	70.5455
74.133	70.5462
74.150	70.5469
74.167	70.5470
74.183	70.5467
74.200	70.5458
74.217	70.5449
74.233	70.5442
74.250	70.5437
74.267	70.5439
74.283	70.5445
74.300	70.5448
74.317	70.5453
74.333	70.5461
74.350	70.5470
74.367	70.5472
74.383	70.5466
74.400	70.5456
74.417	70.5442
74.433	70.5426
74.450	70.5411
74.467	70.5394
74.483	70.5375
74.500	70.5355
74.517	70.5344
74.533	70.5344
74.550	70.5348
74.567	70.5354
74.583	70.5372
74.600	70.5390
74.617	70.5408
74.633	70.5427
74.650	70.5442
74.667	70.5457
74.683	70.5471
74.700	70.5475
74.717	70.5477
74.733	70.5469
74.750	70.5459
74.767	70.5446
74.783	70.5432
74.800	70.5417
74.817	70.5404
74.833	70.5391
74.850	70.5384
74.867	70.5373
74.883	70.5359
74.900	70.5342
74.917	70.5326
74.933	70.5314
74.950	70.5309
74.967	70.5308
74.983	70.5312
75.000	70.5313
75.017	70.5303
75.033	70.5290
75.050	70.5279
75.067	70.5266
75.083	70.5250
75.100	70.5230
75.117	70.5213
75.133	70.5200
75.150	70.5185
75.167	70.5166
75.183	70.5150
75.200	70.5138
75.217	70.5127
75.233	70.5113
75.250	70.5100
75.267	70.5094
75.283	70.5094
75.300	70.5097
75.317	70.5096
75.333	70.5088
75.350	70.5074
75.367	70.5059
75.383	70.5045
75.400	70.5037
75.417	70.5042
75.433	70.5052
75.450	70.5057
75.467	70.5057
75.483	70.5059
75.500	70.5059
75.517	70.5058
75.533	70.5053
75.550	70.5046
75.567	70.5038
75.583	70.5028
75.600	70.5025
75.617	70.5029
75.633	70.5043
75.650	70.5060
75.667	70.5070
75.683	70.5076
75.700	70.5069
75.717	70.5055
75.733	70.5051
75.750	70.5055
75.767	70.5057
75.783	70.5062
75.800	70.5072
75.817	70.5088
75.833	70.5111
75.850	70.5135
75.867	70.5157
75.883	70.5173
75.900	70.5183
75.917	70.5189
75.933	70.5194
75.950	70.5200
75.967	70.5210
75.983	70.5227
76.000	70.5251
76.017	70.5284
76.033	70.5322
76.050	70.5359
76.067	70.5392
76.083	70.5417
76.100	70.5434
76.117	70.5443
76.133	70.5443
76.150	70.5436
76.167	70.5424
76.183	70.5409
76.200	70.5392
76.217	70.5375
76.233	70.5361
76.250	70.5349
76.267	70.5339
76.283	70.5331
76.300	70.5323
76.317	70.5320
76.333	70.5321
76.350	70.5329
76.367	70.5336
76.383	70.5343
76.400	70.5351
76.417	70.5362
76.433	70.5375
76.450	70.5386
76.467	70.5392
76.483	70.5399
76.500	70.5406
76.517	70.5416
76.533	70.5423
76.550	70.5429
76.567	70.5435
76.583	70.5443
76.600	70.5459
76.617	70.5476
76.633	70.5488
76.650	70.5496
76.667	70.5497
76.683	70.5492
76.700	70.5475
76.717	70.5451
76.733	70.5425
76.750	70.5410
76.767	70.5408
76.783	70.5415
76.800	70.5428
76.817	70.5445
76.833	70.5454
76.850	70.5458
76.867	70.5457
76.883	70.5455
76.900	70.5454
76.917	70.5456
76.933	70.5463
76.950	70.5473
76.967	70.5480
76.983	70.5485
77.000	70.5490
77.017	70.5493
77.033	70.5490
77.050	70.5476
77.067	70.5457
77.083	70.5433
77.100	70.5407
77.117	70.5381
77.133	70.5358
77.150	70.5341
77.167	70.5328
77.183	70.5308
77.200	70.5288
77.217	70.5269
77.233	70.5254
77.250	70.5244
77.267	70.5235
77.283	70.5222
77.300	70.5213
77.317	70.5205
77.333	70.5200
77.350	70.5196
77.367	70.5198
77.383	70.5202
77.400	70.5209
77.417	70.5211
77.433	70.5204
77.450	70.5194
77.467	70.5193
77.483	70.5203
77.500	70.5226
77.517	70.5251
77.533	70.5283
77.550	70.5313
77.567	70.5334
77.583	70.5342
77.600	70.5340
77.617	70.5337
77.633	70.5335
77.650	70.5331
77.667	70.5325
77.683	70.5315
77.700	70.5304
77.717	70.5296
77.733	70.5286
77.750	70.5279
77.767	70.5274
77.783	70.5272
77.800	70.5272
77.817	70.5268
77.833	70.5265
77.850	70.5264
77.867	70.5263
77.883	70.5266
77.900	70.5269
77.917	70.5277
77.933	70.5284
77.950	70.5293
77.967	70.5311
77.983	70.5338
78.000	70.5371
78.017	70.5402
78.033	70.5425
78.050	70.5439
78.067	70.5449
78.083	70.5449
78.100	70.5444
78.117	70.5439
78.133	70.5426
78.150	70.5410
78.167	70.5400
78.183	70.5391
78.200	70.5380
78.217	70.5372
78.233	70.5361
78.250	70.5342
78.267	70.5316
78.283	70.5289
78.300	70.5267
78.317	70.5252
78.333	70.5243
78.350	70.5236
78.367	70.5230
78.383	70.5230
78.400	70.5235
78.417	70.5242
78.433	70.5246
78.450	70.5244
78.467	70.5240
78.483	70.5237
78.500	70.5237
78.517	70.5235
78.533	70.5232
78.550	70.5236
78.567	70.5248
78.583	70.5261
78.600	70.5279
78.617	70.5297
78.633	70.5310
78.650	70.5316
78.667	70.5309
78.683	70.5290
78.700	70.5265
78.717	70.5242
78.733	70.5221
78.750	70.5205
78.767	70.5191
78.783	70.5182
78.800	70.5178
78.817	70.5180
78.833	70.5179
78.850	70.5179
78.867	70.5182
78.883	70.5191
78.900	70.5203
78.917	70.5218
78.933	70.5236
78.950	70.5261
78.967	70.5289
78.983	70.5308
79.000	70.5323
79.017	70.5334
79.033	70.5347
79.050	70.5364
79.067	70.5385
79.083	70.5403
79.100	70.5416
79.117	70.5423
79.133	70.5427
79.150	70.5425
79.167	70.5417
79.183	70.5404
79.200	70.5389
79.217	70.5374
79.233	70.5356
79.250	70.5335
79.267	70.5309
79.283	70.5275
79.300	70.5244
79.317	70.5219
79.333	70.5206
79.350	70.5201
79.367	70.5198
79.383	70.5193
79.400	70.5186
79.417	70.5181
79.433	70.5183
79.450	70.5193
79.467	70.5207
79.483	70.5226
79.500	70.5249
79.517	70.5270
79.533	70.5278
79.550	70.5274
79.567	70.5262
79.583	70.5249
79.600	70.5235
79.617	70.5216
79.633	70.5195
79.650	70.5178
79.667	70.5167
79.683	70.5160
79.700	70.5154
79.717	70.5152
79.733	70.5153
79.750	70.5159
79.767	70.5170
79.783	70.5185
79.800	70.5201
79.817	70.5221
79.833	70.5244
79.850	70.5270
79.867	70.5296
79.883	70.5319
79.900	70.5334
79.917	70.5344
79.933	70.5345
79.950	70.5336
79.967	70.5323
79.983	70.5308
80.000	70.5291
80.017	70.5269
80.033	70.5249
80.050	70.5233
80.067	70.5221
80.083	70.5215
80.100	70.5215
80.117	70.5220
80.133	70.5220
80.150	70.5215
80.167	70.5199
80.183	70.5180
80.200	70.5162
80.217	70.5148
80.233	70.5140
80.250	70.5142
80.267	70.5156
80.283	70.5176
80.300	70.5190
80.317	70.5195
80.333	70.5193
80.350	70.5179
80.367	70.5160
80.383	70.5143
80.400	70.5128
80.417	70.5118
80.433	70.5111
80.450	70.5110
80.467	70.5112
80.483	70.5121
80.500	70.5132
80.517	70.5140
80.533	70.5143
80.550	70.5147
80.567	70.5147
80.583	70.5145
80.600	70.5137
80.617	70.5120
80.633	70.5100
80.650	70.5080
80.667	70.5065
80.683	70.5051
80.700	70.5038
80.717	70.5027
80.733	70.5015
80.750	70.4997
80.767	70.4978
80.783	70.4960
80.800	70.4943
80.817	70.4925
80.833	70.4908
80.850	70.4896
80.867	70.4885
80.883	70.4880
80.900	70.4881
80.917	70.4888
80.933	70.4898
80.950	70.4908
80.967	70.4916
80.983	70.4919
81.000	70.4918
81.017	70.4913
81.033	70.4911
81.050	70.4913
81.067	70.4916
81.083	70.4917
81.100	70.4918
81.117	70.4914
81.133	70.4907
81.150	70.4903
81.167	70.4904
81.183	70.4905
81.200	70.4911
81.217	70.5168
81.233	70.5709
81.250	70.6142
81.267	70.6443
81.283	70.6604
81.300	70.6641
81.317	70.6637
81.333	70.6611
81.350	70.6581
81.367	70.6571
81.383	70.6638
81.400	70.6696
81.417	70.6707
81.433	70.6702
81.450	70.6664
81.467	70.6452
81.483	70.6345
81.500	70.6450
81.517	70.6662
81.533	70.6923
81.550	70.7197
81.567	70.7409
81.583	70.7785
81.600	70.8097
81.617	70.7792
81.633	70.6990
81.650	70.6237
81.667	70.5694
81.683	70.5351
81.700	70.5139
81.717	70.5006
81.733	70.4923
81.750	70.4871
81.767	70.4838
81.783	70.4824
81.800	70.4820
81.817	70.4830
81.833	70.4853
81.850	70.4887
81.867	70.4927
81.883	70.4961
81.900	70.4997
81.917	70.5032
81.933	70.5059
81.950	70.5085
81.967	70.5121
81.983	70.5158
82.000	70.5189
82.017	70.5219
82.033	70.5248
82.050	70.5275
82.067	70.5299
82.083	70.5328
82.100	70.5361
82.117	70.5393
82.133	70.5423
82.150	70.5450
82.167	70.5473
82.183	70.5499
82.200	70.5521
82.217	70.5538
82.233	70.5561
82.250	70.5571
82.267	70.5558
82.283	70.5547
82.300	70.5538
82.317	70.5537
82.333	70.5537
82.350	70.5541
82.367	70.5546
82.383	70.5542
82.400	70.5525
82.417	70.5500
82.433	70.5478
82.450	70.5466
82.467	70.5465
82.483	70.5467
82.500	70.5465
82.517	70.5451
82.533	70.5431
82.550	70.5416
82.567	70.5402
82.583	70.5389
82.600	70.5382
82.617	70.5382
82.633	70.5391
82.650	70.5402
82.667	70.5414
82.683	70.5422
82.700	70.5429
82.717	70.5444
82.733	70.5466
82.750	70.5491
82.767	70.5532
82.783	70.5573
82.800	70.5605
82.817	70.5624
82.833	70.5637
82.850	70.5640
82.867	70.5638
82.883	70.5630
82.900	70.5624
82.917	70.5619
82.933	70.5615
82.950	70.5610
82.967	70.5607
82.983	70.5604
83.000	70.5592
83.017	70.5572
83.033	70.5546
83.050	70.5522
83.067	70.5502
83.083	70.5487
83.100	70.5472
83.117	70.5456
83.133	70.5440
83.150	70.5419
83.167	70.5397
83.183	70.5377
83.200	70.5367
83.217	70.5362
83.233	70.5361
83.250	70.5365
83.267	70.5372
83.283	70.5378
83.300	70.5394
83.317	70.5416
83.333	70.5443
83.350	70.5471
83.367	70.5495
83.383	70.5510
83.400	70.5520
83.417	70.5525
83.433	70.5530
83.450	70.5530
83.467	70.5528
83.483	70.5528
83.500	70.5520
83.517	70.5506
83.533	70.5495
83.550	70.5485
83.567	70.5477
83.583	70.5474
83.600	70.5473
83.617	70.5467
83.633	70.5459
83.650	70.5444
83.667	70.5422
83.683	70.5396
83.700	70.5370
83.717	70.5345
83.733	70.5320
83.750	70.5293
83.767	70.5262
83.783	70.5237
83.800	70.5215
83.817	70.5201
83.833	70.5198
83.850	70.5206
83.867	70.5218
83.883	70.5236
83.900	70.5260
83.917	70.5287
83.933	70.5318
83.950	70.5352
83.967	70.5385
83.983	70.5411
84.000	70.5431
84.017	70.5450
84.033	70.5467
84.050	70.5471
84.067	70.5462
84.083	70.5440
84.100	70.5412
84.117	70.5377
84.133	70.5343
84.150	70.5319
84.167	70.5303
84.183	70.5293
84.200	70.5287
84.217	70.5281
84.233	70.5272
84.250	70.5261
84.267	70.5251
84.283	70.5247
84.300	70.5239
84.317	70.5229
84.333	70.5221
84.350	70.5213
84.367	70.5201
84.383	70.5186
84.400	70.5170
84.417	70.5150
84.433	70.5131
84.450	70.5113
84.467	70.5096
84.483	70.5083
84.500	70.5071
84.517	70.5060
84.533	70.5038
84.550	70.5010
84.567	70.4986
84.583	70.4963
84.600	70.4946
84.617	70.4934
84.633	70.4926
84.650	70.4921
84.667	70.4919
84.683	70.4917
84.700	70.4912
84.717	70.4909
84.733	70.4910
84.750	70.4908
84.767	70.4908
84.783	70.4910
84.800	70.4915
84.817	70.4919
84.833	70.4911
84.850	70.4897
84.867	70.4884
84.883	70.4872
84.900	70.4864
84.917	70.4867
84.933	70.4875
84.950	70.4883
84.967	70.4889
84.983	70.4903
85.000	70.4922
85.017	70.4941
85.033	70.4964
85.050	70.4993
85.067	70.5012
85.083	70.5021
85.100	70.5027
85.117	70.5033
85.133	70.5047
85.150	70.5059
85.167	70.5071
85.183	70.5077
85.200	70.5080
85.217	70.5081
85.233	70.5075
85.250	70.5067
85.267	70.5063
85.283	70.5072
85.300	70.5091
85.317	70.5114
85.333	70.5135
85.350	70.5154
85.367	70.5167
85.383	70.5168
85.400	70.5163
85.417	70.5157
85.433	70.5149
85.450	70.5136
85.467	70.5124
85.483	70.5111
85.500	70.5094
85.517	70.5070
85.533	70.5044
85.550	70.5023
85.567	70.5007
85.583	70.4992
85.600	70.4986
85.617	70.4990
85.633	70.4990
85.650	70.4979
85.667	70.4961
85.683	70.4945
85.700	70.4936
85.717	70.4939
85.733	70.4952
85.750	70.4972
85.767	70.4995
85.783	70.5026
85.800	70.5060
85.817	70.5092
85.833	70.5124
85.850	70.5154
85.867	70.5179
85.883	70.5202
85.900	70.5228
85.917	70.5248
85.933	70.5260
85.950	70.5267
85.967	70.5268
85.983	70.5265
86.000	70.5259
86.017	70.5250
86.033	70.5246
86.050	70.5241
86.067	70.5234
86.083	70.5228
86.100	70.5222
86.117	70.5218
86.133	70.5220
86.150	70.5228
86.167	70.5237
86.183	70.5243
86.200	70.5243
86.217	70.5235
86.233	70.5227
86.250	70.5218
86.267	70.5207
86.283	70.5192
86.300	70.5182
86.317	70.5177
86.333	70.5176
86.350	70.5175
86.367	70.5177
86.383	70.5177
86.400	70.5172
86.417	70.5169
86.433	70.5177
86.450	70.5185
86.467	70.5191
86.483	70.5191
86.500	70.5191
86.517	70.5195
86.533	70.5203
86.550	70.5207
86.567	70.5210
86.583	70.5214
86.600	70.5218
86.617	70.5225
86.633	70.5234
86.650	70.5243
86.667	70.5255
86.683	70.5269
86.700	70.5276
86.717	70.5281
86.733	70.5283
86.750	70.5283
86.767	70.5282
86.783	70.5280
86.800	70.5279
86.817	70.5279
86.833	70.5282
86.850	70.5287
86.867	70.5292
86.883	70.5298
86.900	70.5305
86.917	70.5307
86.933	70.5301
86.950	70.5293
86.967	70.5286
86.983	70.5284
87.000	70.5286
87.017	70.5288
87.033	70.5290
87.050	70.5290
87.067	70.5285
87.083	70.5269
87.100	70.5249
87.117	70.5228
87.133	70.5209
87.150	70.5188
87.167	70.5171
87.183	70.5169
87.200	70.5187
87.217	70.5218
87.233	70.5256
87.250	70.5295
87.267	70.5334
87.283	70.5371
87.300	70.5396
87.317	70.5414
87.333	70.5435
87.350	70.5454
87.367	70.5472
87.383	70.5484
87.400	70.5492
87.417	70.5490
87.433	70.5486
87.450	70.5478
87.467	70.5468
87.483	70.5455
87.500	70.5443
87.517	70.5435
87.533	70.5434
87.550	70.5430
87.567	70.5431
87.583	70.5435
87.600	70.5439
87.617	70.5445
87.633	70.5455
87.650	70.5459
87.667	70.5454
87.683	70.5440
87.700	70.5425
87.717	70.5413
87.733	70.5404
87.750	70.5397
87.767	70.5401
87.783	70.5406
87.800	70.5403
87.817	70.5391
87.833	70.5376
87.850	70.5361
87.867	70.5350
87.883	70.5339
87.900	70.5331
87.917	70.5325
87.933	70.5320
87.950	70.5317
87.967	70.5322
87.983	70.5336
88.000	70.5355
88.017	70.5376
88.033	70.5400
88.050	70.5422
88.067	70.5441
88.083	70.5459
88.100	70.5468
88.117	70.5473
88.133	70.5482
88.150	70.5485
88.167	70.5485
88.183	70.5483
88.200	70.5477
88.217	70.5472
88.233	70.5468
88.250	70.5465
88.267	70.5460
88.283	70.5450
88.300	70.5439
88.317	70.5426
88.333	70.5414
88.350	70.5403
88.367	70.5391
88.383	70.5381
88.400	70.5377
88.417	70.5379
88.433	70.5382
88.450	70.5390
88.467	70.5400
88.483	70.5412
88.500	70.5425
88.517	70.5438
88.533	70.5448
88.550	70.5449
88.567	70.5447
88.583	70.5441
88.600	70.5438
88.617	70.5441
88.633	70.5450
88.650	70.5468
88.667	70.5490
88.683	70.5516
88.700	70.5543
88.717	70.5563
88.733	70.5583
88.750	70.5596
88.767	70.5608
88.783	70.5618
88.800	70.5626
88.817	70.5621
88.833	70.5611
88.850	70.5607
88.867	70.5611
88.883	70.5629
88.900	70.5646
88.917	70.5655
88.933	70.5654
88.950	70.5647
88.967	70.5629
88.983	70.5606
89.000	70.5587
89.017	70.5567
89.033	70.5556
89.050	70.5553
89.067	70.5559
89.083	70.5553
89.100	70.5542
89.117	70.5531
89.133	70.5519
89.150	70.5504
89.167	70.5494
89.183	70.5488
89.200	70.5476
89.217	70.5470
89.233	70.5479
89.250	70.5502
89.267	70.5537
89.283	70.5573
89.300	70.5616
89.317	70.5655
89.333	70.5690
89.350	70.5710
89.367	70.5724
89.383	70.5746
89.400	70.5764
89.417	70.5774
89.433	70.5775
89.450	70.5770
89.467	70.5766
89.483	70.5765
89.500	70.5766
89.517	70.5768
89.533	70.5769
89.550	70.5765
89.567	70.5757
89.583	70.5751
89.600	70.5748
89.617	70.5752
89.633	70.5758
89.650	70.5761
89.667	70.5759
89.683	70.5755
89.700	70.5758
89.717	70.5764
89.733	70.5776
89.750	70.5789
89.767	70.5798
89.783	70.5802
89.800	70.5797
89.817	70.5789
89.833	70.5780
89.850	70.5780
89.867	70.5784
89.883	70.5792
89.900	70.5806
89.917	70.5813
89.933	70.5814
89.950	70.5805
89.967	70.5793
89.983	70.5783
90.000	70.5775
90.017	70.5780
90.033	70.5799
90.050	70.5821
90.067	70.5842
90.083	70.5863
90.100	70.5885
90.117	70.5901
90.133	70.5911
90.150	70.5915
90.167	70.5911
90.183	70.5902
90.200	70.5895
90.217	70.5882
90.233	70.5880
90.250	70.5890
90.267	70.5909
90.283	70.5922
90.300	70.5938
90.317	70.5953
90.333	70.5970
90.350	70.5981
90.367	70.5992
90.383	70.6007
90.400	70.6026
90.417	70.6055
90.433	70.6084
90.450	70.6132
90.467	70.6449
90.483	70.6771
90.500	70.6979
90.517	70.7124
90.533	70.7196
90.550	70.7239
90.567	70.7241
90.583	70.6996
90.600	70.6674
90.617	70.6410
90.633	70.6224
90.650	70.6094
90.667	70.6002
90.683	70.5937
90.700	70.5883
90.717	70.5845
90.733	70.5815
90.750	70.5793
90.767	70.5775
90.783	70.5754
90.800	70.5737
90.817	70.5716
90.833	70.5690
90.850	70.5662
90.867	70.5639
90.883	70.5624
90.900	70.5608
90.917	70.5591
90.933	70.5577
90.950	70.5560
90.967	70.5545
90.983	70.5531
91.000	70.5520
91.017	70.5511
91.033	70.5502
91.050	70.5489
91.067	70.5477
91.083	70.5474
91.100	70.5471
91.117	70.5465
91.133	70.5460
91.150	70.5458
91.167	70.5456
91.183	70.5448
91.200	70.5437
91.217	70.5427
91.233	70.5426
91.250	70.5432
91.267	70.5443
91.283	70.5454
91.300	70.5464
91.317	70.5474
91.333	70.5489
91.350	70.5506
91.367	70.5527
91.383	70.5549
91.400	70.5568
91.417	70.5587
91.433	70.5598
91.450	70.5603
91.467	70.5604
91.483	70.5600
91.500	70.5592
91.517	70.5584
91.533	70.5578
91.550	70.5571
91.567	70.5565
91.583	70.5565
91.600	70.5567
91.617	70.5562
91.633	70.5554
91.650	70.5543
91.667	70.5534
91.683	70.5531
91.700	70.5528
91.717	70.5531
91.733	70.5542
91.750	70.5555
91.767	70.5562
91.783	70.5567
91.800	70.5575
91.817	70.5580
91.833	70.5579
91.850	70.5575
91.867	70.5570
91.883	70.5567
91.900	70.5573
91.917	70.5579
91.933	70.5577
91.950	70.5574
91.967	70.5567
91.983	70.5556
92.000	70.5544
92.017	70.5531
92.033	70.5522
92.050	70.5523
92.067	70.5536
92.083	70.5549
92.100	70.5565
92.117	70.5583
92.133	70.5601
92.150	70.5620
92.167	70.5640
92.183	70.5661
92.200	70.5678
92.217	70.5702
92.233	70.5728
92.250	70.5757
92.267	70.5786
92.283	70.5818
92.300	70.5846
92.317	70.5870
92.333	70.5889
92.350	70.5896
92.367	70.5893
92.383	70.5883
92.400	70.5862
92.417	70.5839
92.433	70.5812
92.450	70.5789
92.467	70.5766
92.483	70.5746
92.500	70.5727
92.517	70.5708
92.533	70.5690
92.550	70.5675
92.567	70.5670
92.583	70.5673
92.600	70.5675
92.617	70.5672
92.633	70.5667
92.650	70.5672
92.667	70.5687
92.683	70.5704
92.700	70.5726
92.717	70.5754
92.733	70.5790
92.750	70.5832
92.767	70.6098
92.783	70.6507
92.800	70.6870
92.817	70.7092
92.833	70.7210
92.850	70.7278
